window_start,window_end,window_center,imu_count,emg_count,imu_qw_mean,imu_qw_std,imu_qw_min,imu_qw_max,imu_qx_mean,imu_qx_std,imu_qx_min,imu_qx_max,imu_qy_mean,imu_qy_std,imu_qy_min,imu_qy_max,imu_qz_mean,imu_qz_std,imu_qz_min,imu_qz_max,imu_ax_mean,imu_ax_std,imu_ax_min,imu_ax_max,imu_ay_mean,imu_ay_std,imu_ay_min,imu_ay_max,imu_az_mean,imu_az_std,imu_az_min,imu_az_max,imu_gx_mean,imu_gx_std,imu_gx_min,imu_gx_max,imu_gy_mean,imu_gy_std,imu_gy_min,imu_gy_max,imu_gz_mean,imu_gz_std,imu_gz_min,imu_gz_max,imu_qw_last,imu_qx_last,imu_qy_last,imu_qz_last,imu_ax_last,imu_ay_last,imu_az_last,imu_gx_last,imu_gy_last,imu_gz_last,emg_0_mean,emg_0_std,emg_0_min,emg_0_max,emg_1_mean,emg_1_std,emg_1_min,emg_1_max,emg_2_mean,emg_2_std,emg_2_min,emg_2_max,emg_3_mean,emg_3_std,emg_3_min,emg_3_max,emg_4_mean,emg_4_std,emg_4_min,emg_4_max,emg_5_mean,emg_5_std,emg_5_min,emg_5_max,emg_6_mean,emg_6_std,emg_6_min,emg_6_max,emg_7_mean,emg_7_std,emg_7_min,emg_7_max,emg_8_mean,emg_8_std,emg_8_min,emg_8_max,emg_9_mean,emg_9_std,emg_9_min,emg_9_max,emg_10_mean,emg_10_std,emg_10_min,emg_10_max,emg_11_mean,emg_11_std,emg_11_min,emg_11_max,emg_12_mean,emg_12_std,emg_12_min,emg_12_max,emg_13_mean,emg_13_std,emg_13_min,emg_13_max,emg_14_mean,emg_14_std,emg_14_min,emg_14_max,emg_15_mean,emg_15_std,emg_15_min,emg_15_max
10280,10380,10330.0,6,2,0.96,0.008164965809277268,0.95,0.97,-0.07333333333333335,0.004714045207910314,-0.08,-0.07,-0.02,0.0,-0.02,-0.02,-0.265,0.029860788111948193,-0.31,-0.22,-0.03166666666666667,0.027938424357067018,-0.08,0.01,-0.085,0.01384437310486346,-0.1,-0.06,0.88,0.005773502691896263,0.87,0.89,-4.2716666666666665,13.000324889102666,-28.81,6.25,2.6149999999999998,12.370417333299633,-14.81,25.06,-108.51833333333333,5.68644123234285,-114.56,-97.12,0.95,-0.08,-0.02,-0.31,0.01,-0.08,0.88,-28.81,-14.81,-110.06,1.0,1.0,0.0,2.0,-0.5,0.5,-1.0,0.0,1.0,1.0,0.0,2.0,-18.5,2.5,-21.0,-16.0,7.0,7.0,0.0,14.0,1.0,4.0,-3.0,5.0,-0.5,1.5,-2.0,1.0,1.5,1.5,0.0,3.0,1.5,0.5,1.0,2.0,0.0,0.0,0.0,0.0,2.0,1.0,1.0,3.0,64.5,20.5,44.0,85.0,-7.0,5.0,-12.0,-2.0,0.5,2.5,-2.0,3.0,-2.0,2.0,-4.0,0.0,-1.5,2.5,-4.0,1.0
10330,10430,10380.0,5,2,0.946,0.010198039027185543,0.93,0.96,-0.076,0.004898979485566354,-0.08,-0.07,-0.02,0.0,-0.02,-0.02,-0.31,0.028284271247461894,-0.35,-0.27,0.008000000000000002,0.052306787322488085,-0.08,0.07,-0.092,0.023999999999999997,-0.12,-0.06,0.884,0.013564659966250548,0.87,0.91,-15.925999999999998,11.252343044895138,-28.81,4.62,-0.5219999999999999,10.000810767132833,-14.81,16.44,-108.58600000000001,6.020051827019429,-114.94,-97.12,0.93,-0.08,-0.02,-0.35,0.05,-0.12,0.88,-20.25,16.44,-110.94,-3.5,3.5,-7.0,0.0,0.0,0.0,0.0,0.0,0.0,2.0,-2.0,2.0,-7.0,9.0,-16.0,2.0,11.5,2.5,9.0,14.0,3.0,2.0,1.0,5.0,-2.0,3.0,-5.0,1.0,0.0,3.0,-3.0,3.0,1.5,0.5,1.0,2.0,0.0,0.0,0.0,0.0,4.5,1.5,3.0,6.0,27.0,17.0,10.0,44.0,-14.0,2.0,-16.0,-12.0,-2.0,0.0,-2.0,-2.0,-4.0,4.0,-8.0,0.0,-4.0,0.0,-4.0,-4.0
10380,10480,10430.0,5,3,0.9259999999999999,0.010198039027185548,0.91,0.94,-0.08,0.0,-0.08,-0.08,-0.016,0.004898979485566357,-0.02,-0.01,-0.364,0.024166091947189147,-0.4,-0.33,0.042,0.019390719429665318,0.02,0.07,-0.11599999999999999,0.019595917942265426,-0.14,-0.08,0.882,0.017204650534085267,0.86,0.91,-13.586000000000002,6.937805416700586,-20.81,-4.19,21.94,12.412994803833602,0.13,33.44,-107.9,5.458366055881558,-114.94,-99.56,0.91,-0.08,-0.01,-0.4,0.02,-0.12,0.86,-4.19,27.94,-110.12,-5.0,2.160246899469287,-7.0,-2.0,-1.0,0.816496580927726,-2.0,0.0,0.6666666666666666,1.8856180831641267,-2.0,2.0,-23.333333333333332,27.776888874666213,-62.0,2.0,1.3333333333333333,6.548960901462833,-7.0,9.0,-1.6666666666666667,1.8856180831641267,-3.0,1.0,-0.3333333333333333,4.642796092394707,-5.0,6.0,0.0,2.160246899469287,-3.0,2.0,1.6666666666666667,0.4714045207910317,1.0,2.0,48.333333333333336,36.16935473881477,0.0,87.0,3.0,2.943920288775949,-1.0,6.0,-3.0,9.273618495495704,-11.0,10.0,-10.666666666666666,5.557777333511022,-16.0,-3.0,-1.0,2.160246899469287,-3.0,2.0,-5.0,2.943920288775949,-8.0,-1.0,-2.3333333333333335,1.247219128924647,-4.0,-1.0
10430,10530,10480.0,5,3,0.914,0.01019803902718558,0.9,0.93,-0.08,0.0,-0.08,-0.08,-0.012,0.004,-0.02,-0.01,-0.396,0.024166091947189144,-0.43,-0.36,0.01,0.027568097504180444,-0.03,0.05,-0.11600000000000002,0.023323807579381208,-0.14,-0.08,0.868,0.013266499161421611,0.85,0.89,-7.836,4.262293279444765,-16.12,-4.19,23.7,10.096401339091072,6.0,33.44,-104.91199999999999,3.665828146544789,-110.12,-99.56,0.9,-0.08,-0.01,-0.43,-0.01,-0.14,0.87,-7.06,6.0,-103.25,-1.0,4.546060565661952,-6.0,5.0,-9.666666666666666,11.556623882239812,-26.0,-1.0,-0.6666666666666666,3.7712361663282534,-6.0,2.0,-12.0,40.033319456006474,-62.0,36.0,-2.3333333333333335,3.681787005729087,-7.0,2.0,-3.6666666666666665,0.9428090415820634,-5.0,-3.0,1.6666666666666667,3.2998316455372216,-2.0,6.0,0.0,2.160246899469287,-3.0,2.0,0.6666666666666666,1.247219128924647,-1.0,2.0,61.0,20.11632835948615,38.0,87.0,0.0,2.943920288775949,-3.0,4.0,-11.333333333333334,2.8674417556808756,-15.0,-8.0,-10.0,4.96655480858378,-14.0,-3.0,-1.0,2.160246899469287,-3.0,2.0,-2.6666666666666665,2.3570226039551585,-6.0,-1.0,-0.3333333333333333,1.699673171197595,-2.0,2.0
10480,10580,10530.0,5,2,0.8939999999999999,0.01019803902718558,0.88,0.91,-0.08,0.0,-0.08,-0.08,-0.01,0.0,-0.01,-0.01,-0.438,0.017204650534085267,-0.46,-0.41,0.002,0.02135415650406262,-0.03,0.03,-0.136,0.025768197453450246,-0.18,-0.1,0.8800000000000001,0.017888543819998333,0.85,0.9,-2.424,3.3712822486407155,-7.06,2.06,4.436,8.50001552939758,-5.87,19.37,-81.088,24.885224853314064,-107.69,-42.44,0.88,-0.08,-0.01,-0.46,0.0,-0.13,0.89,-2.12,3.62,-42.44,1.5,3.5,-2.0,5.0,-16.5,9.5,-26.0,-7.0,-1.5,4.5,-6.0,3.0,-7.5,43.5,-51.0,36.0,8.0,10.0,-2.0,18.0,-2.5,2.5,-5.0,0.0,-0.5,1.5,-2.0,1.0,-2.0,1.0,-3.0,-1.0,-1.5,0.5,-2.0,-1.0,27.5,10.5,17.0,38.0,-4.0,1.0,-5.0,-3.0,-12.5,2.5,-15.0,-10.0,-10.5,3.5,-14.0,-7.0,-1.0,1.0,-2.0,0.0,0.0,1.0,-1.0,1.0,1.0,1.0,0.0,2.0
10530,10630,10580.0,5,2,0.884,0.00489897948556636,0.88,0.89,-0.08,0.0,-0.08,-0.08,-0.008,0.004,-0.01,-0.0,-0.458,0.011661903789690588,-0.47,-0.44,0.014000000000000002,0.011999999999999999,0.0,0.03,-0.136,0.023323807579381198,-0.18,-0.11,0.8859999999999999,0.01019803902718558,0.87,0.9,-3.8879999999999995,5.048118065180329,-10.69,2.06,-1.15,3.194557872382343,-5.87,3.62,-54.364,19.684296888636894,-89.31,-36.38,0.88,-0.08,-0.0,-0.47,0.02,-0.11,0.88,-10.69,-3.0,-40.94,-2.0,0.0,-2.0,-2.0,-37.0,30.0,-67.0,-7.0,2.5,0.5,2.0,3.0,-23.0,28.0,-51.0,5.0,3.5,14.5,-11.0,18.0,0.0,0.0,0.0,0.0,-2.0,0.0,-2.0,-2.0,-0.5,0.5,-1.0,0.0,-1.0,1.0,-2.0,0.0,-33.5,50.5,-84.0,17.0,0.0,5.0,-5.0,5.0,-4.0,6.0,-10.0,2.0,-7.5,0.5,-8.0,-7.0,1.0,1.0,0.0,2.0,1.0,0.0,1.0,1.0,3.0,3.0,0.0,6.0
10580,10680,10630.0,5,3,0.8720000000000001,0.007483314773547889,0.86,0.88,-0.08,0.0,-0.08,-0.08,-0.002,0.004,-0.01,-0.0,-0.48200000000000004,0.011661903789690611,-0.5,-0.47,-0.006,0.014966629547095767,-0.02,0.02,-0.126,0.010198039027185574,-0.14,-0.11,0.884,0.01019803902718558,0.87,0.9,-6.414,5.2876520309112625,-10.69,4.0,-3.112,1.8741974282342828,-4.75,0.44,-49.938,9.975053684066067,-63.56,-36.38,0.86,-0.08,-0.0,-0.5,-0.01,-0.14,0.88,4.0,-3.81,-63.56,-1.0,0.816496580927726,-2.0,0.0,-15.666666666666666,42.4682888230213,-67.0,37.0,3.0,1.4142135623730951,2.0,5.0,-22.333333333333332,22.050447211388303,-49.0,5.0,-5.333333333333333,4.921607686744467,-11.0,1.0,-1.0,2.160246899469287,-4.0,1.0,-0.3333333333333333,2.3570226039551585,-2.0,3.0,-0.3333333333333333,1.247219128924647,-2.0,1.0,-0.6666666666666666,0.9428090415820634,-2.0,0.0,-30.0,39.42080668885405,-84.0,9.0,0.6666666666666666,4.189935029992178,-5.0,5.0,-25.333333333333332,26.386023236217735,-61.0,2.0,-7.333333333333333,6.548960901462833,-15.0,1.0,-1.0,2.449489742783178,-4.0,2.0,1.0,1.632993161855452,-1.0,3.0,1.3333333333333333,3.39934634239519,-2.0,6.0
10630,10730,10680.0,5,3,0.8619999999999999,0.007483314773547889,0.85,0.87,-0.078,0.0039999999999999975,-0.08,-0.07,-0.002,0.004,-0.01,-0.0,-0.5,0.014142135623730963,-0.52,-0.48,-0.004,0.01624807680927192,-0.02,0.02,-0.128,0.011661903789690608,-0.14,-0.11,0.8859999999999999,0.01019803902718558,0.87,0.9,3.786,10.701415981074655,-8.5,16.37,1.9119999999999997,8.624002319109149,-4.75,17.56,-59.974000000000004,4.704647064339683,-63.81,-52.5,0.85,-0.07,-0.0,-0.52,0.01,-0.11,0.89,16.37,17.56,-63.69,0.3333333333333333,1.247219128924647,-1.0,2.0,41.0,49.07137658554119,-17.0,103.0,4.0,1.4142135623730951,2.0,5.0,-30.0,13.589211407093005,-49.0,-18.0,-4.0,3.559026084010437,-7.0,1.0,-1.3333333333333333,2.0548046676563256,-4.0,1.0,1.6666666666666667,2.6246692913372702,-2.0,4.0,0.0,1.4142135623730951,-2.0,1.0,-0.6666666666666666,0.9428090415820634,-2.0,0.0,17.0,29.93325909419153,-15.0,57.0,-2.0,2.943920288775949,-5.0,2.0,-33.0,19.86621923433512,-61.0,-17.0,-3.0,8.640987597877148,-15.0,5.0,-1.3333333333333333,2.0548046676563256,-4.0,1.0,1.3333333333333333,1.699673171197595,-1.0,3.0,-1.3333333333333333,0.9428090415820634,-2.0,0.0
10680,10780,10730.0,5,2,0.8459999999999999,0.01019803902718558,0.83,0.86,-0.07200000000000001,0.0039999999999999975,-0.08,-0.07,-0.002,0.004,-0.01,-0.0,-0.53,0.014142135623730963,-0.55,-0.51,0.0,0.01414213562373095,-0.02,0.02,-0.11400000000000002,0.016248076809271924,-0.14,-0.09,0.89,0.012649110640673528,0.87,0.91,6.247999999999999,9.786045983950823,-8.13,16.37,16.312,5.82360506902726,5.0,21.25,-62.826,1.8635943764671545,-65.31,-60.44,0.83,-0.07,0.0,-0.55,-0.02,-0.11,0.89,-8.13,20.0,-65.31,1.5,0.5,1.0,2.0,105.5,2.5,103.0,108.0,3.0,2.0,1.0,5.0,28.5,46.5,-18.0,75.0,-8.0,1.0,-9.0,-7.0,1.0,2.0,-1.0,3.0,3.5,0.5,3.0,4.0,2.5,1.5,1.0,4.0,-2.0,2.0,-4.0,0.0,44.5,12.5,32.0,57.0,-3.0,0.0,-3.0,-3.0,-17.5,3.5,-21.0,-14.0,-10.0,15.0,-25.0,5.0,-2.0,3.0,-5.0,1.0,-0.5,2.5,-3.0,2.0,-0.5,1.5,-2.0,1.0
10730,10830,10780.0,5,2,0.834,0.01019803902718558,0.82,0.85,-0.068,0.0040000000000000036,-0.07,-0.06,0.004,0.004898979485566357,-0.0,0.01,-0.55,0.014142135623730933,-0.57,-0.53,-3.4694469519536144e-19,0.01673320053068151,-0.02,0.03,-0.10200000000000001,0.014696938456699067,-0.12,-0.08,0.898,0.00979795897113272,0.89,0.91,0.8499999999999996,6.695909198906449,-8.13,10.44,21.748,3.1274999600319746,17.75,27.12,-63.702,2.518224771540459,-66.44,-60.44,0.82,-0.06,0.01,-0.57,0.03,-0.08,0.91,6.5,27.12,-66.44,1.0,0.0,1.0,1.0,16.5,91.5,-75.0,108.0,-2.5,3.5,-6.0,1.0,45.5,29.5,16.0,75.0,-8.0,1.0,-9.0,-7.0,3.5,0.5,3.0,4.0,1.5,1.5,0.0,3.0,2.0,2.0,0.0,4.0,-4.0,0.0,-4.0,-4.0,-39.5,71.5,-111.0,32.0,-2.0,1.0,-3.0,-1.0,-19.5,5.5,-25.0,-14.0,-16.5,8.5,-25.0,-8.0,-2.0,3.0,-5.0,1.0,-1.0,2.0,-3.0,1.0,-1.0,2.0,-3.0,1.0
10780,10880,10830.0,5,3,0.8160000000000001,0.01019803902718553,0.8,0.83,-0.062,0.0040000000000000036,-0.07,-0.06,0.014000000000000002,0.004898979485566357,0.01,0.02,-0.58,0.014142135623730933,-0.6,-0.56,-0.016,0.02727636339397171,-0.04,0.03,-0.1,0.014142135623730949,-0.12,-0.08,0.8939999999999999,0.01019803902718558,0.88,0.91,-3.4979999999999998,6.5911073424728865,-11.19,6.5,23.934,4.684590056771243,17.19,30.87,-69.114,3.1867073916505113,-73.94,-65.44,0.8,-0.06,0.02,-0.6,-0.03,-0.12,0.88,-11.19,17.19,-73.94,-1.3333333333333333,2.6246692913372702,-5.0,1.0,-29.666666666666668,32.31442746239243,-75.0,-2.0,-4.333333333333333,3.0912061651652345,-7.0,0.0,3.3333333333333335,8.993825042154693,-4.0,16.0,-8.666666666666666,3.0912061651652345,-13.0,-6.0,1.0,2.449489742783178,-2.0,4.0,0.6666666666666666,2.494438257849294,-2.0,4.0,1.0,2.943920288775949,-2.0,5.0,-1.6666666666666667,2.0548046676563256,-4.0,1.0,-48.0,52.706735812417755,-111.0,18.0,-3.3333333333333335,2.0548046676563256,-6.0,-1.0,-3.0,28.331372481167705,-25.0,37.0,-5.0,4.96655480858378,-9.0,2.0,-3.0,2.943920288775949,-6.0,1.0,-0.6666666666666666,1.699673171197595,-3.0,1.0,-2.0,0.816496580927726,-3.0,-1.0
10830,10930,10880.0,5,3,0.8019999999999999,0.011661903789690578,0.79,0.82,-0.06,0.0,-0.06,-0.06,0.022,0.0074833147735478825,0.01,0.03,-0.6,0.014142135623730963,-0.62,-0.58,-0.042,0.014696938456699072,-0.07,-0.03,-0.11400000000000002,0.017435595774162697,-0.14,-0.09,0.8859999999999999,0.014966629547095779,0.86,0.9,-7.124,3.8066972561526353,-11.19,-0.37,19.624000000000002,6.402398300637036,12.31,30.87,-70.8,2.2717306178330223,-73.94,-68.19,0.79,-0.06,0.03,-0.62,-0.03,-0.12,0.9,-6.75,12.31,-68.19,-1.3333333333333333,2.6246692913372702,-5.0,1.0,-5.0,4.96655480858378,-12.0,-1.0,-3.0,2.943920288775949,-7.0,0.0,-4.0,1.632993161855452,-6.0,-2.0,-7.0,4.546060565661952,-13.0,-2.0,0.3333333333333333,1.699673171197595,-2.0,2.0,2.3333333333333335,3.091206165165235,-2.0,5.0,2.0,2.943920288775949,-2.0,5.0,-1.0,1.4142135623730951,-2.0,1.0,-18.666666666666668,28.335294049804546,-51.0,18.0,-3.6666666666666665,1.699673171197595,-6.0,-2.0,5.333333333333333,23.976840677805924,-21.0,37.0,-0.3333333333333333,6.342099196813483,-9.0,6.0,-2.0,4.320493798938574,-6.0,4.0,-1.6666666666666667,1.247219128924647,-3.0,0.0,-2.3333333333333335,1.247219128924647,-4.0,-1.0
10880,10980,10930.0,5,2,0.778,0.011661903789690611,0.76,0.79,-0.054000000000000006,0.004898979485566354,-0.06,-0.05,0.032,0.004,0.03,0.04,-0.628,0.011661903789690611,-0.64,-0.61,-0.038,0.024819347291981715,-0.07,0.0,-0.11600000000000002,0.025768197453450253,-0.14,-0.07,0.884,0.014966629547095779,0.86,0.9,-9.2,3.6175184864766066,-15.0,-5.44,15.8,2.1149657207623958,12.31,18.87,-69.55,1.9103193450310887,-72.12,-66.94,0.76,-0.05,0.04,-0.64,-0.06,-0.14,0.88,-15.0,15.38,-66.94,1.5,0.5,1.0,2.0,0.0,1.0,-1.0,1.0,0.0,2.0,-2.0,2.0,1.5,7.5,-6.0,9.0,0.0,2.0,-2.0,2.0,1.5,0.5,1.0,2.0,1.0,4.0,-3.0,5.0,2.0,1.0,1.0,3.0,-2.5,0.5,-3.0,-2.0,-14.0,9.0,-23.0,-5.0,-1.0,1.0,-2.0,0.0,-3.0,3.0,-6.0,0.0,5.5,0.5,5.0,6.0,1.0,3.0,-2.0,4.0,0.5,2.5,-2.0,3.0,-1.5,2.5,-4.0,1.0
10930,11030,10980.0,5,2,0.762,0.011661903789690611,0.75,0.78,-0.05,0.0,-0.05,-0.05,0.036,0.004898979485566357,0.03,0.04,-0.644,0.01019803902718558,-0.66,-0.63,-0.034,0.04270831300812525,-0.1,0.02,-0.128,0.03655133376499413,-0.18,-0.07,0.892,0.016000000000000014,0.88,0.92,-8.074,4.880359003188188,-15.0,-1.06,14.962,2.6850579137143398,11.5,18.87,-62.588,10.123486355994164,-71.25,-43.25,0.75,-0.05,0.04,-0.66,0.02,-0.18,0.92,-1.06,12.5,-43.25,2.5,0.5,2.0,3.0,2.0,1.0,1.0,3.0,-1.0,3.0,-4.0,2.0,15.5,6.5,9.0,22.0,-7.0,9.0,-16.0,2.0,-1.0,2.0,-3.0,1.0,-2.0,1.0,-3.0,-1.0,0.0,1.0,-1.0,1.0,-0.5,2.5,-3.0,2.0,-6.0,1.0,-7.0,-5.0,0.0,0.0,0.0,0.0,-21.0,15.0,-36.0,-6.0,-2.5,7.5,-10.0,5.0,-3.5,1.5,-5.0,-2.0,0.5,2.5,-2.0,3.0,-1.0,2.0,-3.0,1.0
10980,11080,11030.0,5,3,0.746,0.00489897948556636,0.74,0.75,-0.05,0.0,-0.05,-0.05,0.042,0.004,0.04,0.05,-0.662,0.007483314773547889,-0.67,-0.65,-0.054000000000000006,0.042237424163885755,-0.1,0.02,-0.132,0.03919183588453085,-0.18,-0.06,0.8880000000000001,0.02315167380558047,0.86,0.92,-4.112,4.07652499072433,-9.56,1.81,6.99,5.65038759732463,-0.62,12.5,-44.676,9.09902983839486,-62.25,-36.38,0.74,-0.05,0.05,-0.67,-0.09,-0.14,0.87,-9.56,-0.62,-39.44,2.3333333333333335,0.4714045207910317,2.0,3.0,-5.0,5.887840577551898,-11.0,3.0,-3.6666666666666665,3.681787005729087,-8.0,1.0,26.666666666666668,12.684198393626966,14.0,44.0,-8.333333333333334,9.46337971105226,-16.0,5.0,-1.0,2.160246899469287,-3.0,2.0,-0.6666666666666666,0.4714045207910317,-1.0,0.0,1.0,1.632993161855452,-1.0,3.0,0.6666666666666666,0.9428090415820634,0.0,2.0,6.0,9.899494936611665,-7.0,17.0,-3.6666666666666665,2.6246692913372702,-6.0,0.0,-17.333333333333332,13.424687043734847,-36.0,-5.0,-4.666666666666667,8.259674462242579,-11.0,7.0,0.6666666666666666,4.189935029992178,-5.0,5.0,-1.6666666666666667,2.0548046676563256,-4.0,1.0,-0.3333333333333333,1.8856180831641267,-3.0,1.0
11030,11130,11080.0,5,3,0.736,0.01019803902718558,0.72,0.75,-0.05,0.0,-0.05,-0.05,0.046,0.004898979485566357,0.04,0.05,-0.674,0.010198039027185543,-0.69,-0.66,-0.072,0.020396078054371138,-0.1,-0.05,-0.128,0.034871191548325395,-0.16,-0.06,0.8859999999999999,0.018547236990991423,0.86,0.91,-3.3240000000000003,4.443735365658041,-9.56,1.81,0.9139999999999999,5.132935222657695,-3.44,10.69,-45.952,9.308031800547308,-62.44,-36.38,0.72,-0.05,0.05,-0.69,-0.07,-0.16,0.89,1.69,-3.44,-62.44,2.0,0.0,2.0,2.0,-9.333333333333334,1.699673171197595,-11.0,-7.0,-1.0,5.0990195135927845,-8.0,4.0,16.666666666666668,21.31248981752771,-8.0,44.0,-2.3333333333333335,8.339997335464536,-14.0,5.0,-0.6666666666666666,1.8856180831641267,-2.0,2.0,0.6666666666666666,1.699673171197595,-1.0,3.0,1.6666666666666667,0.9428090415820634,1.0,3.0,-0.3333333333333333,0.4714045207910317,-1.0,0.0,15.333333333333334,5.436502143433364,8.0,21.0,-4.0,2.160246899469287,-6.0,-1.0,-0.6666666666666666,10.656244908763853,-11.0,14.0,-2.3333333333333335,7.363574011458175,-11.0,7.0,2.6666666666666665,1.699673171197595,1.0,5.0,-0.3333333333333333,2.6246692913372702,-4.0,2.0,0.6666666666666666,0.4714045207910317,0.0,1.0
11080,11180,11130.0,5,2,0.716,0.01019803902718558,0.7,0.73,-0.05,0.0,-0.05,-0.05,0.05,0.0,0.05,0.05,-0.696,0.010198039027185543,-0.71,-0.68,-0.086,0.010198039027185569,-0.1,-0.07,-0.148,0.007483314773547877,-0.16,-0.14,0.8859999999999999,0.014966629547095779,0.86,0.9,2.7640000000000002,6.442644177664944,-5.87,13.38,-0.938,3.886934010245093,-5.56,4.69,-58.426,5.3758928560751675,-64.62,-49.44,0.7,-0.05,0.05,-0.71,-0.08,-0.15,0.86,-0.75,-5.56,-55.75,2.0,0.0,2.0,2.0,-15.5,5.5,-21.0,-10.0,2.5,1.5,1.0,4.0,-13.5,5.5,-19.0,-8.0,3.0,1.0,2.0,4.0,-1.0,1.0,-2.0,0.0,3.0,0.0,3.0,3.0,-1.5,2.5,-4.0,1.0,1.5,2.5,-1.0,4.0,23.5,2.5,21.0,26.0,1.0,2.0,-1.0,3.0,21.5,7.5,14.0,29.0,-6.0,3.0,-9.0,-3.0,-1.0,2.0,-3.0,1.0,0.5,1.5,-1.0,2.0,2.0,2.0,0.0,4.0
11130,11230,11180.0,5,2,0.704,0.01019803902718558,0.69,0.72,-0.05,0.0,-0.05,-0.05,0.05,0.0,0.05,0.05,-0.71,0.008944271909999166,-0.72,-0.7,-0.06999999999999999,0.02097617696340303,-0.09,-0.04,-0.154,0.01019803902718557,-0.17,-0.14,0.884,0.014966629547095779,0.86,0.9,3.2,6.075705720325829,-4.56,13.38,-1.3739999999999999,4.293528152929709,-5.94,4.69,-54.564,7.4384315551062254,-64.62,-44.19,0.69,-0.05,0.05,-0.72,-0.05,-0.16,0.88,2.56,-2.62,-44.19,2.5,0.5,2.0,3.0,-26.5,5.5,-32.0,-21.0,0.0,1.0,-1.0,1.0,-33.0,14.0,-47.0,-19.0,8.0,4.0,4.0,12.0,0.5,0.5,0.0,1.0,0.0,3.0,-3.0,3.0,0.0,4.0,-4.0,4.0,1.0,3.0,-2.0,4.0,19.0,7.0,12.0,26.0,2.5,0.5,2.0,3.0,17.5,11.5,6.0,29.0,-10.0,1.0,-11.0,-9.0,-2.0,1.0,-3.0,-1.0,-2.5,1.5,-4.0,-1.0,0.0,4.0,-4.0,4.0
11180,11280,11230.0,5,2,0.6839999999999999,0.01019803902718553,0.67,0.7,-0.05,0.0,-0.05,-0.05,0.044,0.004898979485566357,0.04,0.05,-0.728,0.007483314773547889,-0.74,-0.72,-0.03,0.02280350850198276,-0.05,0.01,-0.142,0.01939071942966532,-0.17,-0.12,0.8800000000000001,0.012649110640673528,0.86,0.9,4.6,5.19465494522976,-4.56,9.25,-4.01,2.195395180827361,-6.0,-0.37,-44.052,3.1704094372809335,-48.38,-38.5,0.67,-0.05,0.04,-0.74,0.01,-0.12,0.88,6.5,-5.12,-38.5,1.5,1.5,0.0,3.0,-22.5,9.5,-32.0,-13.0,1.0,2.0,-1.0,3.0,-28.0,19.0,-47.0,-9.0,2.5,9.5,-7.0,12.0,0.5,0.5,0.0,1.0,-0.5,2.5,-3.0,2.0,1.5,2.5,-1.0,4.0,-0.5,1.5,-2.0,1.0,16.0,4.0,12.0,20.0,0.5,1.5,-1.0,2.0,14.5,8.5,6.0,23.0,-3.5,7.5,-11.0,4.0,1.5,2.5,-1.0,4.0,-2.0,2.0,-4.0,0.0,-2.0,2.0,-4.0,0.0
11230,11330,11280.0,5,3,0.674,0.00489897948556636,0.67,0.68,-0.05,0.0,-0.05,-0.05,0.04,0.0,0.04,0.04,-0.736,0.00489897948556636,-0.74,-0.73,0.004000000000000001,0.039799497484264805,-0.05,0.07,-0.126,0.00489897948556636,-0.13,-0.12,0.882,0.013266499161421611,0.86,0.9,6.25,2.7900609312342985,2.31,9.25,-2.96,3.0994773753005522,-6.0,1.81,-34.513999999999996,10.852849579718683,-44.81,-16.19,0.67,-0.05,0.04,-0.74,0.01,-0.12,0.89,2.31,1.81,-16.19,-1.3333333333333333,0.9428090415820634,-2.0,0.0,18.666666666666668,22.395436042987765,-13.0,35.0,1.6666666666666667,6.599663291074443,-7.0,9.0,21.333333333333332,21.545816814923082,-9.0,39.0,0.0,6.683312551921141,-7.0,9.0,0.3333333333333333,0.4714045207910317,0.0,1.0,3.0,2.160246899469287,1.0,6.0,-2.0,1.4142135623730951,-4.0,-1.0,-2.6666666666666665,3.8586123009300755,-8.0,1.0,-34.0,38.21866908549625,-63.0,20.0,-3.6666666666666665,3.7712361663282534,-9.0,-1.0,-34.333333333333336,40.5736641458745,-65.0,23.0,1.0,2.943920288775949,-3.0,4.0,1.0,2.160246899469287,-1.0,4.0,-2.6666666666666665,2.494438257849294,-6.0,0.0,-1.6666666666666667,4.642796092394707,-8.0,3.0
11280,11380,11330.0,5,3,0.668,0.0040000000000000036,0.66,0.67,-0.05,0.0,-0.05,-0.05,0.04,0.0,0.04,0.04,-0.74,0.0,-0.74,-0.74,0.006000000000000001,0.03382306905057553,-0.02,0.07,-0.13,0.006324555320336764,-0.14,-0.12,0.892,0.0040000000000000036,0.89,0.9,2.136,1.0129679165699177,1.06,3.94,-2.886,2.886787834254537,-5.25,1.81,-14.714000000000002,7.7201518119788295,-28.69,-6.0,0.66,-0.05,0.04,-0.74,-0.02,-0.14,0.89,1.31,-5.25,-6.0,0.3333333333333333,3.299831645537222,-2.0,5.0,27.666666666666668,9.672412085697939,14.0,35.0,-2.3333333333333335,8.055363982396381,-9.0,9.0,29.333333333333332,10.338708279513883,15.0,39.0,1.0,5.715476066494082,-4.0,9.0,-0.6666666666666666,1.699673171197595,-3.0,1.0,1.0,4.08248290463863,-4.0,6.0,-2.0,1.4142135623730951,-4.0,-1.0,-3.3333333333333335,3.2998316455372216,-8.0,-1.0,-47.0,19.86621923433512,-63.0,-19.0,-2.0,5.354126134736337,-9.0,4.0,-52.333333333333336,15.173075568988056,-65.0,-31.0,0.0,2.160246899469287,-3.0,2.0,-0.3333333333333333,0.4714045207910317,-1.0,0.0,-2.6666666666666665,2.494438257849294,-6.0,0.0,-1.6666666666666667,4.642796092394707,-8.0,3.0
11330,11430,11380.0,5,2,0.666,0.00489897948556636,0.66,0.67,-0.05,0.0,-0.05,-0.05,0.04,0.0,0.04,0.04,-0.74,0.0,-0.74,-0.74,-0.012,0.0074833147735478825,-0.02,-0.0,-0.132,0.007483314773547889,-0.14,-0.12,0.882,0.00979795897113272,0.87,0.89,1.136,1.0517147902354516,-0.81,2.06,-5.424,2.751302237123359,-9.25,-0.81,-3.652,7.735314861077085,-12.31,8.06,0.67,-0.05,0.04,-0.74,-0.01,-0.12,0.87,-0.81,-9.25,8.06,0.5,4.5,-4.0,5.0,18.5,4.5,14.0,23.0,-3.0,6.0,-9.0,3.0,20.5,5.5,15.0,26.0,0.5,4.5,-4.0,5.0,-2.5,0.5,-3.0,-2.0,-3.0,1.0,-4.0,-2.0,-4.5,3.5,-8.0,-1.0,0.5,1.5,-1.0,2.0,-31.0,12.0,-43.0,-19.0,1.0,3.0,-2.0,4.0,-36.0,5.0,-41.0,-31.0,0.0,1.0,-1.0,1.0,-3.0,3.0,-6.0,0.0,-0.5,0.5,-1.0,0.0,1.0,1.0,0.0,2.0
11380,11480,11430.0,5,2,0.668,0.0040000000000000036,0.66,0.67,-0.05,0.0,-0.05,-0.05,0.04,0.0,0.04,0.04,-0.74,0.0,-0.74,-0.74,-0.018,0.014696938456699069,-0.04,-0.0,-0.126,0.008000000000000007,-0.14,-0.12,0.8800000000000001,0.008944271909999166,0.87,0.89,0.4999999999999999,2.6158669690945677,-3.12,4.56,-4.362,4.190815672396008,-9.25,2.87,6.384,2.2319193533817483,2.37,8.81,0.67,-0.05,0.04,-0.74,-0.01,-0.12,0.89,4.56,2.87,6.12,-0.5,3.5,-4.0,3.0,12.5,10.5,2.0,23.0,3.0,0.0,3.0,3.0,13.5,12.5,1.0,26.0,0.5,4.5,-4.0,5.0,-1.0,1.0,-2.0,0.0,-0.5,1.5,-2.0,1.0,-4.5,3.5,-8.0,-1.0,1.5,0.5,1.0,2.0,-16.5,26.5,-43.0,10.0,-1.0,1.0,-2.0,0.0,-14.0,27.0,-41.0,13.0,-1.0,0.0,-1.0,-1.0,-3.5,2.5,-6.0,-1.0,-1.0,0.0,-1.0,-1.0,0.5,1.5,-1.0,2.0
11430,11530,11480.0,5,3,0.67,0.0,0.67,0.67,-0.05,0.0,-0.05,-0.05,0.04,0.0,0.04,0.04,-0.74,0.0,-0.74,-0.74,-0.022,0.0116619037896906,-0.04,-0.01,-0.124,0.00489897948556636,-0.13,-0.12,0.8859999999999999,0.004898979485566361,0.88,0.89,1.0979999999999999,2.6324847577906314,-3.12,4.56,-1.238,3.0408511966224196,-6.06,2.87,8.098,1.5800810105814196,6.12,10.44,0.67,-0.05,0.04,-0.74,-0.02,-0.13,0.88,1.37,-1.19,10.44,-0.6666666666666666,2.6246692913372702,-3.0,3.0,-16.0,13.638181696985855,-31.0,2.0,4.666666666666667,2.357022603955158,3.0,8.0,-16.666666666666668,13.572848714334887,-32.0,1.0,1.3333333333333333,4.988876515698588,-4.0,8.0,0.0,0.0,0.0,0.0,1.0,1.632993161855452,-1.0,3.0,0.0,2.160246899469287,-2.0,3.0,0.0,1.4142135623730951,-2.0,1.0,-11.333333333333334,38.21285414912399,-65.0,21.0,-0.6666666666666666,1.699673171197595,-3.0,1.0,-9.666666666666666,37.85351884420904,-63.0,21.0,-2.0,4.546060565661952,-8.0,3.0,-0.3333333333333333,0.9428090415820634,-1.0,1.0,0.3333333333333333,3.39934634239519,-3.0,5.0,0.0,1.4142135623730951,-1.0,2.0
11480,11580,11530.0,5,3,0.674,0.00489897948556636,0.67,0.68,-0.05,0.0,-0.05,-0.05,0.04,0.0,0.04,0.04,-0.736,0.00489897948556636,-0.74,-0.73,-0.018,0.004,-0.02,-0.01,-0.124,0.010198039027185576,-0.14,-0.11,0.884,0.00489897948556636,0.88,0.89,2.6100000000000003,1.0074125272201055,1.37,4.25,-4.938,4.6530910156583,-11.94,0.81,13.862,3.723489760963497,8.56,17.81,0.68,-0.05,0.04,-0.73,-0.02,-0.11,0.89,1.75,-11.94,17.37,-2.3333333333333335,0.4714045207910317,-3.0,-2.0,-10.666666666666666,20.8539897594894,-31.0,18.0,3.6666666666666665,3.299831645537222,0.0,8.0,-8.0,25.311394008759507,-32.0,27.0,1.0,5.354126134736337,-5.0,8.0,0.3333333333333333,0.4714045207910317,0.0,1.0,1.0,1.632993161855452,-1.0,3.0,-0.3333333333333333,2.3570226039551585,-2.0,3.0,0.0,1.4142135623730951,-2.0,1.0,-28.333333333333332,36.23380864453651,-65.0,21.0,1.0,3.265986323710904,-3.0,5.0,-27.0,35.32704346531139,-63.0,21.0,1.0,6.683312551921141,-8.0,8.0,0.0,0.816496580927726,-1.0,1.0,0.0,3.559026084010437,-3.0,5.0,0.6666666666666666,1.247219128924647,-1.0,2.0
11530,11630,11580.0,5,2,0.678,0.0040000000000000036,0.67,0.68,-0.05,0.0,-0.05,-0.05,0.038,0.004,0.03,0.04,-0.732,0.0040000000000000036,-0.74,-0.73,-0.014000000000000002,0.008,-0.02,-0.0,-0.124,0.010198039027185576,-0.14,-0.11,0.8859999999999999,0.008000000000000007,0.88,0.9,3.136,1.2300829240339857,1.75,4.87,-9.236,2.907387831026332,-11.94,-4.06,18.086000000000002,2.136928637086414,15.13,21.75,0.68,-0.05,0.03,-0.73,-0.01,-0.13,0.88,4.87,-10.06,21.75,0.0,2.0,-2.0,2.0,-14.5,32.5,-47.0,18.0,1.5,1.5,0.0,3.0,-5.5,32.5,-38.0,27.0,-0.5,4.5,-5.0,4.0,1.0,0.0,1.0,1.0,-0.5,1.5,-2.0,1.0,0.5,2.5,-2.0,3.0,3.0,2.0,1.0,5.0,-40.0,1.0,-41.0,-39.0,2.0,3.0,-1.0,5.0,-38.0,1.0,-39.0,-37.0,3.5,4.5,-1.0,8.0,1.0,1.0,0.0,2.0,-2.5,0.5,-3.0,-2.0,0.0,1.0,-1.0,1.0
11580,11680,11630.0,5,2,0.688,0.007483314773547842,0.68,0.7,-0.054000000000000006,0.004898979485566354,-0.06,-0.05,0.032,0.004,0.03,0.04,-0.722,0.007483314773547889,-0.73,-0.71,-0.004,0.008,-0.01,0.01,-0.128,0.007483314773547889,-0.14,-0.12,0.884,0.01019803902718558,0.87,0.9,3.55,1.857503701207618,1.44,6.44,-15.059999999999999,4.627141666298969,-22.62,-10.06,29.85,9.152005244753743,18.37,42.81,0.7,-0.06,0.03,-0.71,0.01,-0.12,0.89,1.44,-22.62,42.81,2.5,0.5,2.0,3.0,-28.5,18.5,-47.0,-10.0,0.5,2.5,-2.0,3.0,-25.0,13.0,-38.0,-12.0,-4.5,8.5,-13.0,4.0,-2.5,3.5,-6.0,1.0,0.5,2.5,-2.0,3.0,1.0,2.0,-1.0,3.0,2.0,3.0,-1.0,5.0,-44.5,5.5,-50.0,-39.0,-2.0,1.0,-3.0,-1.0,-44.0,7.0,-51.0,-37.0,-3.5,2.5,-6.0,-1.0,1.5,0.5,1.0,2.0,-2.0,1.0,-3.0,-1.0,1.0,2.0,-1.0,3.0
11630,11730,11680.0,5,3,0.698,0.007483314773547889,0.69,0.71,-0.057999999999999996,0.0039999999999999975,-0.06,-0.05,0.03,0.0,0.03,0.03,-0.712,0.007483314773547889,-0.72,-0.7,0.008,0.016,-0.01,0.03,-0.12,0.014142135623730954,-0.14,-0.1,0.884,0.008000000000000007,0.87,0.89,2.326,2.3189273382320548,-0.37,6.44,-17.586000000000002,3.645976412430558,-22.62,-12.75,39.302,5.619791455205432,29.19,43.94,0.71,-0.06,0.03,-0.7,0.02,-0.11,0.89,1.12,-14.31,43.44,0.3333333333333333,1.8856180831641267,-1.0,3.0,-26.0,13.9522996909709,-44.0,-10.0,-0.6666666666666666,1.8856180831641267,-2.0,2.0,-27.0,14.719601443879744,-47.0,-12.0,-7.0,4.320493798938574,-13.0,-3.0,-3.3333333333333335,1.8856180831641267,-6.0,-2.0,0.3333333333333333,2.0548046676563256,-2.0,3.0,-2.3333333333333335,3.39934634239519,-7.0,1.0,-2.3333333333333335,1.247219128924647,-4.0,-1.0,-32.666666666666664,28.859814429217813,-56.0,8.0,0.0,4.242640687119285,-3.0,6.0,-34.0,27.65260686927485,-56.0,5.0,-8.333333333333334,5.557777333511022,-16.0,-3.0,-1.3333333333333333,1.699673171197595,-3.0,1.0,-2.6666666666666665,1.247219128924647,-4.0,-1.0,-2.6666666666666665,4.189935029992178,-7.0,3.0
11680,11780,11730.0,5,3,0.714,0.01019803902718558,0.7,0.73,-0.06,0.0,-0.06,-0.06,0.024,0.004898979485566356,0.02,0.03,-0.696,0.010198039027185543,-0.71,-0.68,0.014000000000000002,0.011999999999999999,0.0,0.03,-0.11400000000000002,0.010198039027185569,-0.13,-0.1,0.884,0.00489897948556636,0.88,0.89,3.41,3.0986513195259646,-0.37,8.31,-14.925999999999998,2.824950265048927,-20.19,-12.5,45.166,1.3378579894742202,43.44,46.69,0.73,-0.06,0.02,-0.68,0.02,-0.11,0.88,8.31,-12.5,46.69,0.0,1.4142135623730951,-1.0,2.0,-17.666666666666668,24.499433100017278,-44.0,15.0,0.0,1.632993161855452,-2.0,2.0,-17.666666666666668,25.901522906749886,-47.0,16.0,-3.0,1.632993161855452,-5.0,-1.0,-1.3333333333333333,0.9428090415820634,-2.0,0.0,-0.3333333333333333,1.247219128924647,-2.0,1.0,-0.6666666666666666,4.642796092394707,-7.0,4.0,-2.0,1.632993161855452,-4.0,0.0,-23.666666666666668,26.132142830026183,-56.0,8.0,0.3333333333333333,4.027681991198191,-3.0,6.0,-25.0,24.91318258807306,-56.0,5.0,-3.6666666666666665,9.809292646374773,-16.0,8.0,-1.0,2.160246899469287,-3.0,2.0,-2.3333333333333335,1.699673171197595,-4.0,0.0,-3.3333333333333335,3.299831645537222,-7.0,1.0
11730,11830,11780.0,5,2,0.726,0.01019803902718558,0.71,0.74,-0.06,0.0,-0.06,-0.06,0.02,0.0,0.02,0.02,-0.6839999999999999,0.01019803902718553,-0.7,-0.67,0.018,0.016,0.0,0.04,-0.11000000000000001,0.01414213562373095,-0.13,-0.09,0.884,0.00489897948556636,0.88,0.89,6.148000000000001,2.158771873079692,2.62,8.5,-13.702000000000002,1.039719192859303,-15.13,-12.5,46.242000000000004,0.5917567067638516,45.13,46.69,0.74,-0.06,0.02,-0.67,0.04,-0.09,0.89,5.94,-14.19,46.13,-0.5,2.5,-3.0,2.0,13.5,1.5,12.0,15.0,0.0,0.0,0.0,0.0,12.0,4.0,8.0,16.0,7.0,8.0,-1.0,15.0,0.5,0.5,0.0,1.0,-2.5,3.5,-6.0,1.0,2.0,2.0,0.0,4.0,-1.5,1.5,-3.0,0.0,-19.5,3.5,-23.0,-16.0,-1.5,0.5,-2.0,-1.0,-19.0,5.0,-24.0,-14.0,3.5,4.5,-1.0,8.0,1.0,1.0,0.0,2.0,-1.0,1.0,-2.0,0.0,-4.0,5.0,-9.0,1.0
11780,11880,11830.0,5,2,0.742,0.007483314773547889,0.73,0.75,-0.062,0.0040000000000000036,-0.07,-0.06,0.016,0.004898979485566357,0.01,0.02,-0.668,0.007483314773547889,-0.68,-0.66,0.036,0.004898979485566357,0.03,0.04,-0.10200000000000001,0.007483314773547883,-0.11,-0.09,0.89,0.0,0.89,0.89,6.174,1.6716889662852954,3.31,8.5,-11.638,3.267356117719647,-14.19,-5.81,42.827999999999996,3.202439070458642,38.44,46.63,0.75,-0.06,0.01,-0.66,0.03,-0.11,0.89,6.62,-5.81,42.69,-1.0,2.0,-3.0,1.0,11.0,1.0,10.0,12.0,-2.0,2.0,-4.0,0.0,8.0,0.0,8.0,8.0,8.0,7.0,1.0,15.0,-2.5,3.5,-6.0,1.0,-4.5,1.5,-6.0,-3.0,-1.5,1.5,-3.0,0.0,-0.5,2.5,-3.0,2.0,-9.0,7.0,-16.0,-2.0,-1.0,0.0,-1.0,-1.0,-4.5,9.5,-14.0,5.0,3.5,4.5,-1.0,8.0,0.0,0.0,0.0,0.0,0.5,2.5,-2.0,3.0,-4.5,4.5,-9.0,0.0
11830,11930,11880.0,5,3,0.752,0.007483314773547889,0.74,0.76,-0.062,0.0040000000000000036,-0.07,-0.06,0.012,0.004,0.01,0.02,-0.656,0.01019803902718558,-0.67,-0.64,0.038,0.007483314773547884,0.03,0.05,-0.10200000000000001,0.007483314773547883,-0.11,-0.09,0.8880000000000001,0.0040000000000000036,0.88,0.89,6.998,2.536496796765176,3.31,11.25,-10.674,2.7520290696139096,-13.75,-5.81,42.914,3.494891128490271,38.44,48.44,0.76,-0.06,0.01,-0.64,0.05,-0.09,0.89,7.31,-12.81,48.44,0.3333333333333333,0.9428090415820634,-1.0,1.0,4.666666666666667,7.542472332656507,-6.0,10.0,-1.3333333333333333,3.0912061651652345,-4.0,3.0,6.666666666666667,4.189935029992178,1.0,11.0,-4.0,3.559026084010437,-7.0,1.0,-2.6666666666666665,2.8674417556808756,-6.0,1.0,-1.3333333333333333,3.0912061651652345,-4.0,3.0,0.0,2.160246899469287,-3.0,2.0,0.0,1.632993161855452,-2.0,2.0,3.6666666666666665,4.921607686744467,-2.0,10.0,-0.3333333333333333,3.2998316455372216,-4.0,4.0,7.0,4.320493798938574,3.0,13.0,-0.6666666666666666,6.182412330330469,-6.0,8.0,1.6666666666666667,3.0912061651652345,-1.0,6.0,1.0,1.632993161855452,-1.0,3.0,-2.3333333333333335,3.2998316455372216,-7.0,0.0
11880,11980,11930.0,4,2,0.765,0.0050000000000000044,0.76,0.77,-0.06,0.0,-0.06,-0.06,0.01,0.0,0.01,0.01,-0.64,0.007071067811865481,-0.65,-0.63,0.04,0.010000000000000002,0.03,0.05,-0.0925,0.008291561975888501,-0.1,-0.08,0.8825000000000001,0.008291561975888507,0.87,0.89,8.42,1.9506537365714092,6.06,11.25,-12.9075,1.4870167282179443,-14.94,-10.75,47.625,1.766330942943592,44.75,49.5,0.77,-0.06,0.01,-0.63,0.05,-0.08,0.87,9.06,-14.94,47.81,0.0,1.0,-1.0,1.0,2.0,8.0,-6.0,10.0,0.0,3.0,-3.0,3.0,6.0,5.0,1.0,11.0,-6.5,0.5,-7.0,-6.0,-1.0,2.0,-3.0,1.0,-0.5,3.5,-4.0,3.0,1.5,0.5,1.0,2.0,-1.0,1.0,-2.0,0.0,6.5,3.5,3.0,10.0,0.0,4.0,-4.0,4.0,8.0,5.0,3.0,13.0,-5.0,1.0,-6.0,-4.0,2.5,3.5,-1.0,6.0,0.0,1.0,-1.0,1.0,-3.5,3.5,-7.0,0.0
11930,12030,11980.0,5,2,0.778,0.007483314773547889,0.77,0.79,-0.06,0.0,-0.06,-0.06,0.004,0.004898979485566357,0.0,0.01,-0.628,0.007483314773547889,-0.64,-0.62,0.048,0.009797958971132713,0.03,0.06,-0.094,0.008000000000000002,-0.1,-0.08,0.8800000000000001,0.012649110640673528,0.86,0.89,8.338,2.5669624072042816,4.69,11.38,-11.114,3.0215135280186978,-14.94,-6.25,40.024,7.2807708383110095,31.37,49.5,0.79,-0.06,0.0,-0.62,0.06,-0.1,0.86,4.69,-6.25,34.56,1.0,1.0,0.0,2.0,-13.0,15.0,-28.0,2.0,-3.5,0.5,-4.0,-3.0,-15.5,19.5,-35.0,4.0,-9.0,2.0,-11.0,-7.0,-4.0,3.0,-7.0,-1.0,-6.0,3.0,-9.0,-3.0,-4.0,1.0,-5.0,-3.0,-2.0,1.0,-3.0,-1.0,17.5,17.5,0.0,35.0,-1.5,0.5,-2.0,-1.0,17.5,18.5,-1.0,36.0,0.5,9.5,-9.0,10.0,1.0,5.0,-4.0,6.0,2.0,2.0,0.0,4.0,2.0,0.0,2.0,2.0
11980,12080,12030.0,6,3,0.7883333333333334,0.006871842709362774,0.78,0.8,-0.06,0.0,-0.06,-0.06,0.0,0.0,0.0,0.0,-0.615,0.00957427107756339,-0.63,-0.6,0.05666666666666667,0.012472191289246471,0.04,0.08,-0.09000000000000001,0.008164965809277263,-0.1,-0.08,0.88,0.011547005383792526,0.86,0.89,8.0,2.4022142563337963,4.69,11.38,-10.125,2.1649076192761667,-13.0,-6.25,35.718333333333334,2.1652976444103214,31.37,37.5,0.8,-0.06,-0.0,-0.6,0.08,-0.08,0.89,5.81,-9.25,37.19,-0.6666666666666666,2.494438257849294,-4.0,2.0,-33.0,30.822070014844883,-73.0,2.0,-4.333333333333333,1.247219128924647,-6.0,-3.0,-36.666666666666664,33.9050963065371,-79.0,4.0,-3.6666666666666665,7.71722460186015,-11.0,7.0,-4.333333333333333,2.494438257849294,-7.0,-1.0,-5.333333333333333,2.6246692913372702,-9.0,-3.0,-3.6666666666666665,0.9428090415820634,-5.0,-3.0,-1.3333333333333333,1.247219128924647,-3.0,0.0,39.0,33.595634637057636,0.0,82.0,-7.0,7.788880963698615,-18.0,-1.0,33.0,26.620793877468543,-1.0,64.0,-4.333333333333333,10.338708279513881,-14.0,10.0,0.0,4.320493798938574,-4.0,6.0,0.3333333333333333,2.8674417556808756,-3.0,4.0,-1.0,4.242640687119285,-7.0,2.0
12030,12130,12080.0,5,3,0.798,0.007483314773547889,0.79,0.81,-0.06,0.0,-0.06,-0.06,-0.004,0.004898979485566357,-0.01,-0.0,-0.6,0.008944271909999166,-0.61,-0.59,0.06,0.012649110640673518,0.04,0.08,-0.09,0.008944271909999161,-0.1,-0.08,0.8800000000000001,0.008944271909999166,0.87,0.89,8.212,1.815239929045194,5.81,11.25,-9.038,2.7753875405067303,-13.0,-5.75,38.05,1.6200123456319706,36.81,41.25,0.81,-0.06,-0.01,-0.59,0.06,-0.1,0.87,8.38,-5.75,41.25,-1.0,2.449489742783178,-4.0,2.0,-49.0,17.90716802475106,-73.0,-30.0,-4.666666666666667,7.408703590297623,-13.0,5.0,-51.666666666666664,19.48218559493661,-79.0,-35.0,1.3333333333333333,7.3181661333667165,-9.0,7.0,-5.666666666666667,0.9428090415820634,-7.0,-5.0,-4.333333333333333,1.247219128924647,-6.0,-3.0,-2.6666666666666665,3.681787005729087,-7.0,2.0,0.0,0.0,0.0,0.0,27.333333333333332,51.13598428591053,-41.0,82.0,-6.666666666666667,8.055363982396381,-18.0,0.0,27.0,31.05908348078975,-12.0,64.0,-10.0,7.874007874011811,-17.0,1.0,-3.6666666666666665,1.247219128924647,-5.0,-2.0,-2.3333333333333335,0.4714045207910317,-3.0,-2.0,-4.0,2.449489742783178,-7.0,-1.0
12080,12180,12130.0,5,3,0.8099999999999999,0.006324555320336729,0.8,0.82,-0.06,0.0,-0.06,-0.06,-0.01,0.0,-0.01,-0.01,-0.582,0.007483314773547889,-0.59,-0.57,0.064,0.00489897948556636,0.06,0.07,-0.08,0.017888543819998323,-0.1,-0.06,0.884,0.008000000000000007,0.87,0.89,9.552000000000001,1.1730541334482394,8.25,11.25,-9.040000000000001,2.5340560372651586,-11.69,-5.75,36.876,3.245449737709706,32.31,41.25,0.82,-0.06,-0.01,-0.57,0.07,-0.08,0.88,8.25,-10.94,32.31,0.0,1.4142135623730951,-1.0,2.0,-34.0,7.118052168020874,-44.0,-28.0,-1.3333333333333333,8.259674462242577,-13.0,5.0,-30.0,11.575836902790225,-41.0,-14.0,-5.666666666666667,8.498365855987975,-14.0,6.0,-4.0,2.943920288775949,-7.0,0.0,-3.3333333333333335,2.0548046676563256,-6.0,-1.0,-2.0,3.7416573867739413,-7.0,2.0,0.3333333333333333,0.4714045207910317,0.0,1.0,1.6666666666666667,33.55923452974192,-41.0,41.0,-0.3333333333333333,1.247219128924647,-2.0,1.0,13.333333333333334,18.080068829760823,-12.0,29.0,-4.666666666666667,8.73053390247253,-17.0,2.0,-3.3333333333333335,1.699673171197595,-5.0,-1.0,-1.0,1.4142135623730951,-2.0,1.0,-3.0,1.4142135623730951,-4.0,-1.0
12130,12230,12180.0,5,2,0.8160000000000001,0.004898979485566305,0.81,0.82,-0.06,0.0,-0.06,-0.06,-0.014000000000000002,0.004898979485566357,-0.02,-0.01,-0.572,0.007483314773547854,-0.58,-0.56,0.068,0.007483314773547885,0.06,0.08,-0.074,0.014966629547095768,-0.1,-0.06,0.884,0.008000000000000007,0.87,0.89,9.702000000000002,1.2224794476800012,8.25,11.63,-10.214,1.5095509266003584,-11.69,-7.31,34.788,2.34863705156842,32.31,39.13,0.82,-0.06,-0.02,-0.56,0.08,-0.07,0.87,8.75,-7.31,35.0,-2.0,1.0,-3.0,-1.0,-37.0,9.0,-46.0,-28.0,-2.0,6.0,-8.0,4.0,-14.5,0.5,-15.0,-14.0,-7.5,6.5,-14.0,-1.0,-0.5,0.5,-1.0,0.0,-1.5,0.5,-2.0,-1.0,-3.0,2.0,-5.0,-1.0,-0.5,1.5,-2.0,1.0,-7.5,12.5,-20.0,5.0,1.5,0.5,1.0,2.0,11.5,11.5,0.0,23.0,-2.5,4.5,-7.0,2.0,-0.5,0.5,-1.0,0.0,1.5,0.5,1.0,2.0,0.0,4.0,-4.0,4.0
12180,12280,12230.0,5,2,0.826,0.00489897948556636,0.82,0.83,-0.06,0.0,-0.06,-0.06,-0.02,0.0,-0.02,-0.02,-0.558,0.007483314773547854,-0.57,-0.55,0.08,0.010954451150103323,0.06,0.09,-0.076,0.013564659966250538,-0.1,-0.06,0.882,0.007483314773547889,0.87,0.89,8.112,2.422085052181282,4.81,11.63,-5.662,3.0783593032652963,-10.5,-1.44,35.336,1.604451308080118,33.31,37.31,0.83,-0.06,-0.02,-0.55,0.08,-0.06,0.88,6.06,-1.44,34.0,-2.5,0.5,-3.0,-2.0,-15.0,31.0,-46.0,16.0,-6.0,2.0,-8.0,-4.0,-36.0,21.0,-57.0,-15.0,-1.5,0.5,-2.0,-1.0,-2.0,1.0,-3.0,-1.0,-2.5,0.5,-3.0,-2.0,-3.0,2.0,-5.0,-1.0,-0.5,1.5,-2.0,1.0,-6.5,13.5,-20.0,7.0,3.5,1.5,2.0,5.0,-4.5,4.5,-9.0,0.0,1.5,8.5,-7.0,10.0,2.5,2.5,0.0,5.0,2.0,0.0,2.0,2.0,3.5,0.5,3.0,4.0
12230,12330,12280.0,5,3,0.834,0.00489897948556636,0.83,0.84,-0.06,0.0,-0.06,-0.06,-0.02,0.0,-0.02,-0.02,-0.548,0.007483314773547889,-0.56,-0.54,0.088,0.0039999999999999975,0.08,0.09,-0.072,0.007483314773547884,-0.08,-0.06,0.884,0.00489897948556636,0.88,0.89,4.824,2.7750502698149453,1.44,9.31,-2.162,2.1119412870626872,-5.19,0.75,33.748000000000005,3.189328455960597,29.25,37.31,0.84,-0.06,-0.02,-0.54,0.09,-0.08,0.89,2.5,0.75,29.25,-1.0,2.160246899469287,-3.0,2.0,-25.333333333333332,50.208454356700614,-96.0,16.0,-5.0,2.160246899469287,-8.0,-3.0,-23.333333333333332,40.74582459862878,-57.0,34.0,-4.0,5.0990195135927845,-11.0,1.0,-1.6666666666666667,0.9428090415820634,-3.0,-1.0,-2.0,2.160246899469287,-4.0,1.0,-1.0,0.0,-1.0,-1.0,-1.0,3.559026084010437,-6.0,2.0,-17.0,38.262252939417984,-71.0,13.0,0.3333333333333333,3.39934634239519,-3.0,5.0,3.0,34.53500639447844,-32.0,50.0,3.3333333333333335,4.988876515698588,-2.0,10.0,0.6666666666666666,3.2998316455372216,-3.0,5.0,-1.3333333333333333,2.357022603955158,-3.0,2.0,-1.6666666666666667,4.109609335312651,-7.0,3.0
12280,12380,12330.0,5,3,0.844,0.00489897948556636,0.84,0.85,-0.06,0.0,-0.06,-0.06,-0.02,0.0,-0.02,-0.02,-0.532,0.007483314773547889,-0.54,-0.52,0.086,0.004898979485566354,0.08,0.09,-0.076,0.007999999999999997,-0.09,-0.07,0.884,0.00489897948556636,0.88,0.89,3.8880000000000003,2.4918860327069536,1.44,7.12,-0.624,1.221500716332168,-2.75,0.75,31.838,1.5898855304706687,29.25,34.0,0.85,-0.06,-0.02,-0.52,0.09,-0.07,0.88,1.69,-0.31,32.19,-1.3333333333333333,2.357022603955158,-3.0,2.0,-32.333333333333336,45.16881913690264,-96.0,4.0,-5.333333333333333,2.0548046676563256,-8.0,-3.0,12.666666666666666,42.7577153531643,-47.0,51.0,-3.3333333333333335,5.436502143433364,-11.0,1.0,0.6666666666666666,2.3570226039551585,-1.0,4.0,-1.3333333333333333,2.0548046676563256,-4.0,1.0,-1.3333333333333333,0.4714045207910317,-2.0,-1.0,-1.0,3.559026084010437,-6.0,2.0,-31.333333333333332,34.451253807211266,-71.0,13.0,-2.0,0.816496580927726,-3.0,-1.0,10.666666666666666,33.55923452974192,-32.0,50.0,1.0,2.160246899469287,-2.0,3.0,-0.3333333333333333,2.0548046676563256,-3.0,2.0,-3.0,0.0,-3.0,-3.0,-2.0,3.7416573867739413,-7.0,2.0
12330,12430,12380.0,5,2,0.8480000000000001,0.0040000000000000036,0.84,0.85,-0.06,0.0,-0.06,-0.06,-0.02,0.0,-0.02,-0.02,-0.524,0.00489897948556636,-0.53,-0.52,0.078,0.009797958971132713,0.06,0.09,-0.072,0.009797958971132711,-0.09,-0.06,0.882,0.0040000000000000036,0.88,0.89,3.6120000000000005,2.7738954558526534,0.25,7.12,-0.974,1.512370325019636,-2.81,0.75,30.912,2.6740635744125454,26.62,34.0,0.85,-0.06,-0.02,-0.52,0.06,-0.07,0.88,2.31,-2.81,26.62,-4.5,1.5,-6.0,-3.0,-7.5,2.5,-10.0,-5.0,-2.5,2.5,-5.0,0.0,29.5,21.5,8.0,51.0,-2.0,2.0,-4.0,0.0,2.5,1.5,1.0,4.0,-2.5,1.5,-4.0,-1.0,-3.5,1.5,-5.0,-2.0,1.5,0.5,1.0,2.0,-10.0,26.0,-36.0,16.0,-1.5,0.5,-2.0,-1.0,6.0,8.0,-2.0,14.0,-0.5,3.5,-4.0,3.0,2.5,0.5,2.0,3.0,0.0,3.0,-3.0,3.0,2.0,0.0,2.0,2.0
12380,12480,12430.0,5,2,0.8560000000000001,0.00489897948556636,0.85,0.86,-0.057999999999999996,0.0039999999999999975,-0.06,-0.05,-0.02,0.0,-0.02,-0.02,-0.512,0.007483314773547889,-0.52,-0.5,0.076,0.010198039027185569,0.06,0.09,-0.068,0.0040000000000000036,-0.07,-0.06,0.882,0.0040000000000000036,0.88,0.89,3.874,2.407476687322226,0.25,6.94,0.1,1.4648822478274492,-2.81,1.06,30.524,2.9572798311962303,26.62,35.38,0.86,-0.05,-0.02,-0.5,0.08,-0.07,0.88,6.94,0.56,35.38,-3.0,3.0,-6.0,0.0,0.0,10.0,-10.0,10.0,-1.0,1.0,-2.0,0.0,2.0,6.0,-4.0,8.0,-11.5,7.5,-19.0,-4.0,-2.5,3.5,-6.0,1.0,-4.5,0.5,-5.0,-4.0,-4.5,0.5,-5.0,-4.0,0.0,2.0,-2.0,2.0,10.5,5.5,5.0,16.0,-0.5,0.5,-1.0,0.0,1.5,3.5,-2.0,5.0,1.0,5.0,-4.0,6.0,4.5,1.5,3.0,6.0,1.5,1.5,0.0,3.0,0.0,2.0,-2.0,2.0
12430,12530,12480.0,5,3,0.8640000000000001,0.004898979485566361,0.86,0.87,-0.054000000000000006,0.004898979485566354,-0.06,-0.05,-0.02,0.0,-0.02,-0.02,-0.502,0.007483314773547889,-0.51,-0.49,0.072,0.01720465053408525,0.04,0.09,-0.06200000000000001,0.016000000000000004,-0.07,-0.03,0.8779999999999999,0.014696938456699083,0.85,0.89,6.55,1.6003749560649843,4.0,8.88,0.65,1.278186214915495,-1.62,2.31,33.714,2.612398131985247,29.56,36.81,0.87,-0.05,-0.02,-0.49,0.04,-0.03,0.85,7.06,-1.62,36.81,1.0,0.816496580927726,0.0,2.0,2.0,5.656854249492381,-2.0,10.0,0.6666666666666666,2.0548046676563256,-2.0,3.0,0.3333333333333333,16.21384867602041,-17.0,22.0,-3.3333333333333335,11.08552609887726,-19.0,5.0,-1.0,3.559026084010437,-6.0,2.0,-2.6666666666666665,4.0276819911981905,-6.0,3.0,-3.6666666666666665,0.4714045207910317,-4.0,-3.0,-3.6666666666666665,1.247219128924647,-5.0,-2.0,-2.3333333333333335,5.436502143433364,-8.0,5.0,0.3333333333333333,0.4714045207910317,0.0,1.0,-5.666666666666667,11.115554667022044,-21.0,5.0,-3.6666666666666665,7.133644853010899,-11.0,6.0,1.0,4.08248290463863,-4.0,6.0,-1.0,0.816496580927726,-2.0,0.0,-2.3333333333333335,0.4714045207910317,-3.0,-2.0
12480,12580,12530.0,5,3,0.874,0.00489897948556636,0.87,0.88,-0.05,0.0,-0.05,-0.05,-0.022,0.003999999999999999,-0.03,-0.02,-0.484,0.01019803902718558,-0.5,-0.47,0.072,0.019390719429665314,0.04,0.09,-0.066,0.01854723699099141,-0.08,-0.03,0.884,0.019595917942265444,0.85,0.91,7.888,2.575813657856484,3.62,11.5,-7.514,6.82339094585676,-15.13,2.31,39.926,4.444009900979069,34.88,46.5,0.88,-0.05,-0.03,-0.47,0.09,-0.08,0.91,11.5,-13.88,46.5,1.6666666666666667,0.4714045207910317,1.0,2.0,-1.0,1.4142135623730951,-2.0,1.0,1.3333333333333333,1.247219128924647,0.0,3.0,-9.666666666666666,23.442601296689656,-34.0,22.0,2.6666666666666665,2.6246692913372702,-1.0,5.0,1.6666666666666667,0.4714045207910317,1.0,2.0,-1.3333333333333333,3.6817870057290873,-6.0,3.0,-2.6666666666666665,1.247219128924647,-4.0,-1.0,-4.0,0.816496580927726,-5.0,-3.0,-3.3333333333333335,4.109609335312651,-8.0,2.0,-5.0,7.788880963698615,-16.0,1.0,-21.333333333333332,16.73983937265296,-42.0,-1.0,-6.333333333333333,3.6817870057290873,-11.0,-2.0,-2.0,2.160246899469287,-4.0,1.0,-2.6666666666666665,1.699673171197595,-5.0,-1.0,-2.0,0.816496580927726,-3.0,-1.0
12530,12630,12580.0,5,2,0.8800000000000001,0.006324555320336764,0.87,0.89,-0.05,0.0,-0.05,-0.05,-0.026000000000000002,0.004898979485566356,-0.03,-0.02,-0.47000000000000003,0.008944271909999142,-0.48,-0.46,0.08399999999999999,0.011999999999999999,0.06,0.09,-0.07,0.010954451150103323,-0.08,-0.05,0.8939999999999999,0.01019803902718558,0.88,0.91,9.812000000000001,3.620515985325848,3.62,14.31,-10.752,3.461314201282513,-15.13,-5.44,42.826,3.2612181773073687,37.63,46.5,0.89,-0.05,-0.03,-0.46,0.09,-0.05,0.9,14.31,-5.44,40.69,-0.5,2.5,-3.0,2.0,1.0,0.0,1.0,1.0,-16.0,16.0,-32.0,0.0,-20.5,13.5,-34.0,-7.0,-2.5,1.5,-4.0,-1.0,1.5,0.5,1.0,2.0,0.0,1.0,-1.0,1.0,-0.5,0.5,-1.0,0.0,2.0,5.0,-3.0,7.0,1.0,1.0,0.0,2.0,1.0,17.0,-16.0,18.0,-28.0,14.0,-42.0,-14.0,-2.5,0.5,-3.0,-2.0,-1.5,1.5,-3.0,0.0,-0.5,4.5,-5.0,4.0,1.5,2.5,-1.0,4.0
12580,12680,12630.0,5,2,0.89,0.006324555320336764,0.88,0.9,-0.046,0.004898979485566357,-0.05,-0.04,-0.03,0.0,-0.03,-0.03,-0.45,0.008944271909999166,-0.46,-0.44,0.09,0.00632455532033676,0.08,0.1,-0.054000000000000006,0.008,-0.07,-0.05,0.8859999999999999,0.014966629547095779,0.86,0.9,17.762,4.469789256777102,11.25,23.94,-4.538,3.938428112838928,-10.06,0.75,42.1,2.3920451500755577,38.56,45.5,0.9,-0.04,-0.03,-0.44,0.1,-0.05,0.86,19.31,-6.94,43.69,-1.0,2.0,-3.0,1.0,3.5,2.5,1.0,6.0,-11.5,20.5,-32.0,9.0,13.5,20.5,-7.0,34.0,-1.5,2.5,-4.0,1.0,1.0,0.0,1.0,1.0,-0.5,1.5,-2.0,1.0,0.0,0.0,0.0,0.0,2.5,4.5,-2.0,7.0,-0.5,0.5,-1.0,0.0,15.5,2.5,13.0,18.0,5.5,19.5,-14.0,25.0,-2.0,1.0,-3.0,-1.0,-0.5,0.5,-1.0,0.0,2.0,2.0,0.0,4.0,0.0,4.0,-4.0,4.0
12630,12730,12680.0,5,3,0.8960000000000001,0.00489897948556636,0.89,0.9,-0.042,0.004,-0.05,-0.04,-0.033999999999999996,0.004898979485566357,-0.04,-0.03,-0.43600000000000005,0.01019803902718558,-0.45,-0.42,0.086,0.008,0.08,0.1,-0.038,0.016,-0.05,-0.01,0.884,0.014966629547095779,0.86,0.9,15.15,7.443281534377159,5.75,23.94,-6.290000000000001,5.591142995846199,-14.38,0.75,42.35,2.613380951947113,38.56,46.38,0.9,-0.04,-0.04,-0.42,0.08,-0.03,0.88,6.75,-14.38,41.06,-2.6666666666666665,3.8586123009300755,-8.0,1.0,3.0,2.943920288775949,-1.0,6.0,0.6666666666666666,9.741092797468305,-13.0,9.0,12.333333333333334,23.299976156401726,-20.0,34.0,-1.0,3.559026084010437,-6.0,2.0,1.3333333333333333,0.4714045207910317,1.0,2.0,-1.6666666666666667,0.4714045207910317,-2.0,-1.0,-1.0,0.816496580927726,-2.0,0.0,-0.3333333333333333,2.3570226039551585,-2.0,3.0,-1.3333333333333333,2.0548046676563256,-4.0,1.0,-2.3333333333333335,10.96458946893235,-12.0,13.0,23.666666666666668,26.14489540150344,-9.0,55.0,-2.0,1.4142135623730951,-4.0,-1.0,-0.3333333333333333,1.699673171197595,-2.0,2.0,1.0,0.816496580927726,0.0,2.0,1.6666666666666667,4.189935029992178,-4.0,6.0
12680,12780,12730.0,5,3,0.906,0.00489897948556636,0.9,0.91,-0.042,0.004,-0.05,-0.04,-0.04,0.0,-0.04,-0.04,-0.41600000000000004,0.010198039027185562,-0.43,-0.4,0.096,0.034985711369071804,0.05,0.15,-0.008,0.02785677655436824,-0.04,0.04,0.8800000000000001,0.012649110640673528,0.86,0.9,0.04999999999999982,12.641140771306995,-25.19,7.5,-9.052000000000001,6.447121528248091,-14.56,3.12,45.652,8.002505607620654,38.94,60.88,0.91,-0.05,-0.04,-0.4,0.05,0.0,0.88,-25.19,3.12,60.88,-2.0,4.546060565661952,-8.0,3.0,3.3333333333333335,3.299831645537222,-1.0,7.0,-4.666666666666667,7.93025150224688,-13.0,6.0,20.666666666666668,32.293790252754306,-20.0,59.0,-2.6666666666666665,3.39934634239519,-6.0,2.0,1.0,0.816496580927726,0.0,2.0,-0.3333333333333333,1.699673171197595,-2.0,2.0,0.3333333333333333,2.6246692913372702,-2.0,4.0,-0.3333333333333333,2.3570226039551585,-2.0,3.0,-0.3333333333333333,2.6246692913372702,-4.0,2.0,-14.0,5.887840577551898,-22.0,-8.0,18.0,27.067816067549053,-9.0,55.0,-4.333333333333333,2.8674417556808756,-8.0,-1.0,0.6666666666666666,1.8856180831641267,-2.0,2.0,1.6666666666666667,0.4714045207910317,1.0,2.0,3.3333333333333335,2.0548046676563256,1.0,6.0
12730,12830,12780.0,5,2,0.914,0.00489897948556636,0.91,0.92,-0.046,0.004898979485566357,-0.05,-0.04,-0.04,0.0,-0.04,-0.04,-0.4,0.01414213562373094,-0.42,-0.38,0.10200000000000001,0.03429285639896449,0.05,0.15,-0.054000000000000006,0.071442284397967,-0.15,0.04,0.8800000000000001,0.012649110640673528,0.86,0.9,-9.686,15.680431881807339,-30.81,7.5,-7.688,6.211728905868317,-14.56,3.12,53.202,10.841771810917255,38.94,62.69,0.92,-0.05,-0.04,-0.38,0.11,-0.15,0.88,-5.37,-12.13,62.69,-1.0,4.0,-5.0,3.0,0.5,6.5,-6.0,7.0,-7.5,0.5,-8.0,-7.0,29.5,29.5,0.0,59.0,-9.0,5.0,-14.0,-4.0,-5.0,5.0,-10.0,0.0,0.5,1.5,-1.0,2.0,1.0,3.0,-2.0,4.0,-3.5,1.5,-5.0,-2.0,-1.0,3.0,-4.0,2.0,-18.0,4.0,-22.0,-14.0,-19.5,27.5,-47.0,8.0,-6.5,1.5,-8.0,-5.0,0.5,1.5,-1.0,2.0,-0.5,2.5,-3.0,2.0,3.0,2.0,1.0,5.0
12780,12880,12830.0,5,2,0.9259999999999999,0.004898979485566361,0.92,0.93,-0.05,0.0,-0.05,-0.05,-0.04,0.0,-0.04,-0.04,-0.372,0.011661903789690611,-0.39,-0.36,0.10800000000000001,0.02925747767665559,0.07,0.14,-0.092,0.039191835884530846,-0.15,-0.05,0.884,0.013564659966250548,0.87,0.9,-1.3359999999999996,15.940434874870887,-30.81,11.5,-0.5119999999999998,10.00644272456501,-12.13,17.94,53.038,9.97297428052434,37.75,62.69,0.93,-0.05,-0.04,-0.36,0.07,-0.05,0.87,11.5,17.94,37.75,-2.0,3.0,-5.0,1.0,-4.5,1.5,-6.0,-3.0,0.0,8.0,-8.0,8.0,-2.0,2.0,-4.0,0.0,-6.0,8.0,-14.0,2.0,-4.0,6.0,-10.0,2.0,1.5,2.5,-1.0,4.0,2.0,4.0,-2.0,6.0,-2.5,2.5,-5.0,0.0,-0.5,3.5,-4.0,3.0,-7.5,6.5,-14.0,-1.0,-40.0,7.0,-47.0,-33.0,-8.5,3.5,-12.0,-5.0,-1.0,0.0,-1.0,-1.0,-3.5,0.5,-4.0,-3.0,1.5,3.5,-2.0,5.0
12830,12930,12880.0,5,3,0.932,0.003999999999999959,0.93,0.94,-0.048,0.004,-0.05,-0.04,-0.038,0.004,-0.04,-0.03,-0.356,0.010198039027185562,-0.37,-0.34,0.11000000000000001,0.027568097504180447,0.07,0.14,-0.066,0.019595917942265423,-0.09,-0.05,0.874,0.013564659966250548,0.86,0.9,15.176000000000002,6.729652591330402,7.12,23.94,11.912,11.620124612068496,-1.75,27.81,44.751999999999995,6.757565833937542,37.75,57.19,0.94,-0.04,-0.03,-0.34,0.09,-0.05,0.86,23.94,27.81,39.88,1.6666666666666667,0.9428090415820634,1.0,3.0,-0.3333333333333333,2.494438257849294,-3.0,3.0,9.666666666666666,8.65383665716478,0.0,21.0,1.0,14.719601443879744,-14.0,21.0,-0.6666666666666666,3.7712361663282534,-6.0,2.0,-2.3333333333333335,3.091206165165235,-5.0,2.0,-1.3333333333333333,3.858612300930075,-5.0,4.0,-0.3333333333333333,4.496912521077347,-4.0,6.0,-1.3333333333333333,1.247219128924647,-3.0,0.0,2.0,3.7416573867739413,-3.0,6.0,11.333333333333334,8.806563209081938,-1.0,19.0,-22.333333333333332,7.586537784494028,-33.0,-16.0,-9.333333333333334,3.0912061651652345,-12.0,-5.0,-2.3333333333333335,1.8856180831641267,-5.0,-1.0,-2.0,1.4142135623730951,-4.0,-1.0,-0.6666666666666666,1.8856180831641267,-2.0,2.0
12880,12980,12930.0,5,3,0.938,0.003999999999999959,0.93,0.94,-0.038,0.007483314773547884,-0.05,-0.03,-0.03,0.006324555320336759,-0.04,-0.02,-0.33799999999999997,0.007483314773547871,-0.35,-0.33,0.092,0.018330302779823362,0.06,0.11,-0.05,0.022803508501982758,-0.09,-0.02,0.858,0.016000000000000014,0.84,0.88,14.888,10.098743288152244,-0.94,23.94,24.286,4.035683833007734,16.87,27.81,30.478,13.479288408517714,7.44,43.88,0.94,-0.03,-0.02,-0.33,0.06,-0.04,0.88,-0.94,23.31,7.44,0.3333333333333333,2.494438257849294,-3.0,3.0,1.3333333333333333,1.699673171197595,-1.0,3.0,19.333333333333332,15.15109090315135,0.0,37.0,1.6666666666666667,14.522013940527977,-14.0,21.0,-2.6666666666666665,3.39934634239519,-6.0,2.0,-2.6666666666666665,2.6246692913372702,-5.0,1.0,-4.0,0.816496580927726,-5.0,-3.0,-2.3333333333333335,1.699673171197595,-4.0,0.0,-1.0,1.632993161855452,-3.0,1.0,0.6666666666666666,3.858612300930075,-3.0,6.0,15.0,3.7416573867739413,10.0,19.0,-21.666666666666668,6.649979114420001,-31.0,-16.0,-10.0,3.7416573867739413,-14.0,-5.0,-2.6666666666666665,1.699673171197595,-5.0,-1.0,0.3333333333333333,1.8856180831641267,-1.0,3.0,0.3333333333333333,1.699673171197595,-2.0,2.0
12930,13030,12980.0,5,2,0.9399999999999998,1.1102230246251565e-16,0.94,0.94,-0.032,0.004,-0.04,-0.03,-0.024,0.004898979485566356,-0.03,-0.02,-0.332,0.0040000000000000036,-0.34,-0.33,0.06999999999999999,0.026076809620810593,0.04,0.11,-0.04,0.01414213562373095,-0.06,-0.02,0.868,0.02400000000000002,0.84,0.9,4.4,9.879192274675091,-6.56,22.25,19.412,7.810908781953608,7.87,27.5,16.014000000000003,12.903699624526293,3.25,38.0,0.94,-0.03,-0.02,-0.33,0.05,-0.03,0.9,-6.56,7.87,8.19,-1.5,1.5,-3.0,0.0,-0.5,2.5,-3.0,2.0,19.0,18.0,1.0,37.0,-9.5,7.5,-17.0,-2.0,-3.0,1.0,-4.0,-2.0,1.0,0.0,1.0,1.0,-0.5,3.5,-4.0,3.0,0.0,0.0,0.0,0.0,-2.5,3.5,-6.0,1.0,-2.0,1.0,-3.0,-1.0,0.0,10.0,-10.0,10.0,-24.0,7.0,-31.0,-17.0,-4.5,9.5,-14.0,5.0,-2.5,0.5,-3.0,-2.0,0.0,3.0,-3.0,3.0,0.0,1.0,-1.0,1.0
12980,13080,13030.0,5,2,0.942,0.0040000000000000036,0.94,0.95,-0.033999999999999996,0.004898979485566357,-0.04,-0.03,-0.02,0.0,-0.02,-0.02,-0.328,0.0040000000000000036,-0.33,-0.32,0.04,0.01414213562373095,0.02,0.06,-0.048,0.019390719429665318,-0.07,-0.02,0.892,0.014696938456699083,0.87,0.91,-7.236,4.125707696868503,-10.81,0.5,-0.038,9.645677581175933,-14.75,12.44,13.662,7.207377886582609,3.25,23.19,0.95,-0.04,-0.02,-0.32,0.06,-0.06,0.9,-10.06,-14.75,23.19,-1.0,1.0,-2.0,0.0,-2.5,0.5,-3.0,-2.0,-2.0,3.0,-5.0,1.0,-23.5,6.5,-30.0,-17.0,3.5,5.5,-2.0,9.0,2.0,1.0,1.0,3.0,4.5,1.5,3.0,6.0,0.5,0.5,0.0,1.0,-1.5,4.5,-6.0,3.0,-1.0,2.0,-3.0,1.0,-9.0,1.0,-10.0,-8.0,-7.0,10.0,-17.0,3.0,1.0,4.0,-3.0,5.0,-1.0,2.0,-3.0,1.0,-1.5,1.5,-3.0,0.0,1.0,2.0,-1.0,3.0
13030,13130,13080.0,5,3,0.946,0.00489897948556636,0.94,0.95,-0.038,0.004,-0.04,-0.03,-0.022,0.003999999999999999,-0.03,-0.02,-0.322,0.007483314773547889,-0.33,-0.31,0.048,0.019390719429665318,0.02,0.07,-0.054000000000000006,0.01854723699099141,-0.07,-0.02,0.898,0.017204650534085267,0.87,0.92,-2.1000000000000005,10.762614923892798,-10.81,17.06,-10.824,6.75369113892544,-17.12,-0.19,20.16,3.4390870881674394,14.56,24.31,0.95,-0.04,-0.03,-0.31,0.06,-0.07,0.89,17.06,-16.5,19.62,-0.3333333333333333,1.247219128924647,-2.0,1.0,3.3333333333333335,4.109609335312651,-2.0,8.0,21.0,40.3567425180312,-10.0,78.0,-4.0,18.547236990991408,-30.0,12.0,8.0,2.160246899469287,5.0,10.0,2.6666666666666665,0.4714045207910317,2.0,3.0,2.6666666666666665,2.8674417556808756,-1.0,6.0,1.0,1.632993161855452,-1.0,3.0,0.6666666666666666,1.699673171197595,-1.0,3.0,-1.6666666666666667,2.494438257849294,-5.0,1.0,6.0,10.708252269472673,-8.0,18.0,-2.0,5.0990195135927845,-9.0,3.0,-4.333333333333333,7.408703590297623,-14.0,4.0,-1.0,2.160246899469287,-4.0,1.0,-0.3333333333333333,0.4714045207910317,-1.0,0.0,0.6666666666666666,2.0548046676563256,-2.0,3.0
13080,13180,13130.0,5,3,0.95,0.0,0.95,0.95,-0.032,0.007483314773547883,-0.04,-0.02,-0.03,0.006324555320336759,-0.04,-0.02,-0.312,0.0040000000000000036,-0.32,-0.31,0.066,0.008000000000000002,0.06,0.08,-0.052000000000000005,0.02227105745132009,-0.07,-0.01,0.9040000000000001,0.01019803902718558,0.89,0.92,21.723999999999997,12.386795550100922,2.56,40.44,-13.024000000000001,3.881446122259074,-17.12,-6.31,15.224,5.959699992449284,8.81,24.31,0.95,-0.02,-0.04,-0.31,0.06,-0.01,0.91,40.44,-6.31,8.81,-0.6666666666666666,1.699673171197595,-3.0,1.0,4.333333333333333,2.8674417556808756,1.0,8.0,31.666666666666668,36.077077979730504,-10.0,78.0,0.3333333333333333,12.498888839501783,-17.0,12.0,5.333333333333333,3.6817870057290873,1.0,10.0,1.6666666666666667,1.247219128924647,0.0,3.0,1.3333333333333333,1.699673171197595,-1.0,3.0,0.6666666666666666,1.699673171197595,-1.0,3.0,-1.0,0.816496580927726,-2.0,0.0,-1.0,3.265986323710904,-5.0,3.0,-14.0,38.40138886377245,-68.0,18.0,-6.0,4.242640687119285,-9.0,0.0,-4.333333333333333,7.408703590297623,-14.0,4.0,-0.6666666666666666,2.494438257849294,-4.0,2.0,-0.6666666666666666,0.4714045207910317,-1.0,0.0,-1.3333333333333333,1.699673171197595,-3.0,1.0
13130,13230,13180.0,5,2,0.95,0.0,0.95,0.95,-0.022,0.0074833147735478825,-0.03,-0.01,-0.036,0.004898979485566357,-0.04,-0.03,-0.308,0.0040000000000000036,-0.31,-0.3,0.08399999999999999,0.038781438859330636,0.06,0.16,-0.038,0.02785677655436824,-0.07,0.0,0.868,0.05192301994298868,0.77,0.91,31.336000000000002,8.207749021504009,21.56,41.81,-3.5120000000000005,10.551582630108149,-13.31,16.0,12.924000000000001,3.2274485278622187,8.81,16.87,0.95,-0.01,-0.04,-0.3,0.06,-0.05,0.86,25.87,16.0,16.87,-1.5,1.5,-3.0,0.0,0.0,1.0,-1.0,1.0,-31.5,58.5,-90.0,27.0,-33.0,16.0,-49.0,-17.0,-0.5,1.5,-2.0,1.0,-1.5,1.5,-3.0,0.0,-2.0,4.0,-6.0,2.0,1.0,1.0,0.0,2.0,-0.5,1.5,-2.0,1.0,1.0,2.0,-1.0,3.0,-98.0,30.0,-128.0,-68.0,14.5,23.5,-9.0,38.0,-4.0,1.0,-5.0,-3.0,0.0,2.0,-2.0,2.0,-1.0,0.0,-1.0,-1.0,-1.5,1.5,-3.0,0.0
13180,13280,13230.0,5,2,0.952,0.0040000000000000036,0.95,0.96,-0.006,0.01019803902718557,-0.02,0.01,-0.032,0.007483314773547883,-0.04,-0.02,-0.3,0.006324555320336764,-0.31,-0.29,0.064,0.049234134500364686,0.03,0.16,-6.938893903907229e-19,0.027568097504180444,-0.05,0.03,0.842,0.04214261501141095,0.77,0.9,34.472,8.867999548939999,21.62,42.06,27.851999999999997,19.427594189708614,-2.06,54.69,19.334,2.668202391124032,15.56,22.37,0.96,0.01,-0.02,-0.29,0.04,0.03,0.84,21.62,54.69,21.62,-2.5,2.5,-5.0,0.0,-4.5,3.5,-8.0,-1.0,-4.5,85.5,-90.0,81.0,-58.5,9.5,-68.0,-49.0,-8.0,6.0,-14.0,-2.0,-4.0,1.0,-5.0,-3.0,-5.0,1.0,-6.0,-4.0,1.5,0.5,1.0,2.0,3.0,2.0,1.0,5.0,-1.0,0.0,-1.0,-1.0,-57.5,70.5,-128.0,13.0,33.5,4.5,29.0,38.0,-7.5,2.5,-10.0,-5.0,-2.5,0.5,-3.0,-2.0,0.0,1.0,-1.0,1.0,-0.5,0.5,-1.0,0.0
13230,13330,13280.0,5,3,0.9559999999999998,0.004898979485566361,0.95,0.96,0.01,0.014142135623730949,-0.01,0.03,-0.018,0.0116619037896906,-0.03,-0.0,-0.294,0.00489897948556636,-0.3,-0.29,0.02,0.02097617696340303,-0.02,0.04,0.028000000000000004,0.017204650534085254,-0.0,0.05,0.8699999999999999,0.02966479394838268,0.84,0.91,30.748,8.971604984616745,21.62,42.06,53.326,15.95724111492961,32.13,71.56,18.509999999999998,4.9531686827726755,8.81,22.37,0.96,0.03,-0.0,-0.29,-0.02,0.05,0.86,26.62,71.56,8.81,-3.3333333333333335,2.3570226039551585,-5.0,0.0,-4.0,2.8284271247461903,-8.0,-2.0,12.666666666666666,54.73775865179558,-53.0,81.0,19.333333333333332,68.04573625306895,-68.0,98.0,-3.0,11.575836902790225,-14.0,13.0,0.0,3.559026084010437,-5.0,3.0,-0.3333333333333333,2.6246692913372702,-4.0,2.0,-1.3333333333333333,2.6246692913372702,-5.0,1.0,1.0,2.943920288775949,-2.0,5.0,1.3333333333333333,2.0548046676563256,-1.0,4.0,25.0,29.028721409436322,-3.0,65.0,-10.666666666666666,45.900859348043674,-75.0,29.0,-7.0,3.559026084010437,-10.0,-2.0,0.0,2.943920288775949,-3.0,4.0,0.0,0.816496580927726,-1.0,1.0,0.6666666666666666,1.699673171197595,-1.0,3.0
13280,13380,13330.0,5,3,0.96,0.0,0.96,0.96,0.027999999999999997,0.003999999999999999,0.02,0.03,0.008,0.0116619037896906,-0.01,0.02,-0.284,0.004898979485566333,-0.29,-0.28,-0.026000000000000002,0.024979991993593593,-0.05,0.02,0.041999999999999996,0.0132664991614216,0.02,0.06,0.8859999999999999,0.018547236990991423,0.86,0.91,4.036,19.43987510247944,-23.69,26.62,51.826,19.838057969468682,18.94,71.56,8.0,6.227394318653669,2.0,19.5,0.96,0.03,0.02,-0.28,-0.05,0.02,0.89,-23.69,18.94,2.0,-1.3333333333333333,2.6246692913372702,-5.0,1.0,-0.3333333333333333,2.3570226039551585,-2.0,3.0,-9.333333333333334,30.944394574067136,-53.0,15.0,26.0,59.62102537416366,-48.0,98.0,1.6666666666666667,8.65383665716478,-8.0,13.0,2.6666666666666665,0.4714045207910317,2.0,3.0,-0.3333333333333333,2.6246692913372702,-4.0,2.0,-1.6666666666666667,2.357022603955158,-5.0,0.0,0.0,1.632993161855452,-2.0,2.0,2.6666666666666665,1.247219128924647,1.0,4.0,6.666666666666667,44.21412544525662,-42.0,65.0,-33.333333333333336,36.55437350334734,-75.0,14.0,-5.333333333333333,2.8674417556808756,-9.0,-2.0,0.0,2.943920288775949,-3.0,4.0,-0.3333333333333333,0.4714045207910317,-1.0,0.0,2.0,1.4142135623730951,0.0,3.0
13330,13430,13380.0,5,2,0.96,0.0,0.96,0.96,0.026000000000000002,0.004898979485566356,0.02,0.03,0.018,0.004,0.01,0.02,-0.28,0.0,-0.28,-0.28,-0.052000000000000005,0.011661903789690602,-0.07,-0.04,0.036,0.014966629547095765,0.02,0.06,0.8939999999999999,0.016248076809271934,0.87,0.92,-17.95,14.349122621261552,-34.25,7.0,17.228,30.499413371407652,-26.37,58.5,1.1880000000000002,3.874508484956511,-5.06,6.44,0.96,0.02,0.02,-0.28,-0.07,0.04,0.92,-34.25,-26.37,-5.06,-1.5,2.5,-4.0,1.0,-3.5,6.5,-10.0,3.0,-11.5,26.5,-38.0,15.0,-26.5,21.5,-48.0,-5.0,-2.5,2.5,-5.0,0.0,2.5,0.5,2.0,3.0,-2.5,1.5,-4.0,-1.0,-1.0,1.0,-2.0,0.0,4.0,2.0,2.0,6.0,1.0,2.0,-1.0,3.0,-50.0,8.0,-58.0,-42.0,-16.0,23.0,-39.0,7.0,-11.0,6.0,-17.0,-5.0,-0.5,2.5,-3.0,2.0,2.5,2.5,0.0,5.0,3.0,0.0,3.0,3.0
13380,13480,13430.0,5,2,0.96,0.0,0.96,0.96,0.008,0.0116619037896906,-0.01,0.02,0.014000000000000002,0.008,0.0,0.02,-0.286,0.004898979485566333,-0.29,-0.28,-0.054000000000000006,0.012000000000000002,-0.07,-0.04,0.006,0.0265329983228432,-0.03,0.04,0.89,0.018973665961010293,0.87,0.92,-35.312,10.953113529951198,-49.19,-20.56,-33.574,16.91185335792621,-54.19,-5.31,-10.488,7.058391884841759,-20.25,-0.69,0.96,-0.01,0.0,-0.29,-0.06,-0.03,0.87,-20.56,-54.19,-20.25,-2.0,2.0,-4.0,0.0,-4.5,5.5,-10.0,1.0,20.5,58.5,-38.0,79.0,-1.5,3.5,-5.0,2.0,0.0,5.0,-5.0,5.0,0.0,2.0,-2.0,2.0,-1.0,0.0,-1.0,-1.0,-2.5,0.5,-3.0,-2.0,1.0,5.0,-4.0,6.0,-1.0,0.0,-1.0,-1.0,-36.0,22.0,-58.0,-14.0,-16.0,23.0,-39.0,7.0,-12.5,4.5,-17.0,-8.0,1.0,1.0,0.0,2.0,3.0,2.0,1.0,5.0,2.5,0.5,2.0,3.0
13430,13530,13480.0,5,3,0.958,0.0040000000000000036,0.95,0.96,-0.006,0.01019803902718557,-0.02,0.01,0.0,0.01414213562373095,-0.02,0.02,-0.292,0.0040000000000000036,-0.3,-0.29,-0.022,0.051536394906900505,-0.06,0.08,-0.018000000000000002,0.03187475490101846,-0.07,0.02,0.8779999999999999,0.019390719429665335,0.85,0.9,-23.811999999999998,21.164858988427017,-49.19,5.94,-57.2,16.541637162022386,-83.94,-36.31,-15.338,4.096253898380811,-20.25,-10.63,0.95,-0.02,-0.02,-0.3,0.08,0.01,0.9,-9.31,-65.87,-10.69,-3.0,2.943920288775949,-7.0,0.0,1.6666666666666667,2.494438257849294,-1.0,5.0,18.0,43.135445594854666,-13.0,79.0,-18.333333333333332,30.180935851773864,-61.0,4.0,-1.3333333333333333,7.586537784494028,-12.0,5.0,-1.6666666666666667,2.0548046676563256,-4.0,1.0,0.0,2.160246899469287,-2.0,3.0,-2.0,1.4142135623730951,-3.0,0.0,-1.0,2.449489742783178,-4.0,2.0,-0.3333333333333333,0.9428090415820634,-1.0,1.0,-11.333333333333334,3.7712361663282534,-14.0,-6.0,-12.333333333333334,18.926759422104517,-39.0,3.0,-7.666666666666667,4.4969125210773475,-13.0,-2.0,-1.3333333333333333,1.8856180831641267,-4.0,0.0,-0.6666666666666666,1.699673171197595,-3.0,1.0,1.6666666666666667,1.247219128924647,0.0,3.0
13480,13580,13530.0,5,3,0.952,0.0040000000000000036,0.95,0.96,-0.024,0.008,-0.03,-0.01,-0.024,0.008,-0.03,-0.01,-0.304,0.01019803902718558,-0.32,-0.29,0.064,0.058172158288995954,-0.05,0.11,-3.122502256758253e-18,0.06260990336999411,-0.07,0.09,0.8960000000000001,0.026532998322843223,0.85,0.93,-17.259999999999998,13.662080368670066,-30.0,5.94,-45.85,30.22834365293606,-83.94,-0.06,-32.576,20.260799194503658,-69.19,-10.69,0.95,-0.03,-0.03,-0.32,0.1,-0.07,0.93,-26.31,-0.06,-69.19,-3.6666666666666665,2.3570226039551585,-7.0,-2.0,1.6666666666666667,2.494438257849294,-1.0,5.0,-13.333333333333334,1.247219128924647,-15.0,-12.0,-42.666666666666664,33.2498955721,-71.0,4.0,-4.333333333333333,6.128258770283412,-12.0,3.0,-0.3333333333333333,2.6246692913372702,-4.0,2.0,0.6666666666666666,2.0548046676563256,-2.0,3.0,-0.6666666666666666,1.699673171197595,-3.0,1.0,1.0,1.4142135623730951,-1.0,2.0,-0.3333333333333333,0.9428090415820634,-1.0,1.0,-9.0,3.559026084010437,-14.0,-6.0,-32.666666666666664,47.6398525979621,-100.0,3.0,-7.0,4.546060565661952,-13.0,-2.0,-2.0,1.632993161855452,-4.0,0.0,-1.3333333333333333,1.247219128924647,-3.0,0.0,0.3333333333333333,2.0548046676563256,-2.0,3.0
13530,13630,13580.0,5,2,0.946,0.00489897948556636,0.94,0.95,-0.033999999999999996,0.004898979485566357,-0.04,-0.03,-0.027999999999999997,0.003999999999999999,-0.03,-0.02,-0.32199999999999995,0.01720465053408525,-0.35,-0.3,0.1,0.030331501776206204,0.06,0.15,-0.0020000000000000026,0.059126981996377934,-0.07,0.09,0.9019999999999999,0.017204650534085267,0.88,0.93,-27.560000000000002,1.7585334799201295,-30.0,-25.56,-4.061999999999999,33.48325993686995,-56.19,40.63,-64.564,28.75480731982045,-100.75,-26.56,0.94,-0.04,-0.02,-0.35,0.15,-0.02,0.9,-25.56,40.63,-100.75,0.0,2.0,-2.0,2.0,-2.0,3.0,-5.0,1.0,-8.0,7.0,-15.0,-1.0,-9.0,62.0,-71.0,53.0,-0.5,3.5,-4.0,3.0,-0.5,2.5,-3.0,2.0,-1.0,2.0,-3.0,1.0,-1.5,2.5,-4.0,1.0,0.5,1.5,-1.0,2.0,1.0,2.0,-1.0,3.0,-1.0,6.0,-7.0,5.0,-2.0,98.0,-100.0,96.0,2.0,8.0,-6.0,10.0,-0.5,1.5,-2.0,1.0,1.0,2.0,-1.0,3.0,2.0,4.0,-2.0,6.0
13580,13680,13630.0,5,2,0.9279999999999999,0.011661903789690566,0.91,0.94,-0.042,0.004,-0.05,-0.04,-0.006,0.01854723699099141,-0.03,0.02,-0.368,0.0256124969497314,-0.4,-0.33,0.038,0.06852736679604725,-0.06,0.15,-0.072,0.035440090293338694,-0.12,-0.02,0.8800000000000001,0.016733200530681523,0.85,0.9,-35.36,8.751285619838953,-49.81,-25.56,53.602,21.0307492971601,18.5,74.44,-99.688,5.7704259808093905,-106.06,-89.19,0.91,-0.05,0.02,-0.4,-0.06,-0.12,0.88,-31.56,65.5,-99.0,-1.0,3.0,-4.0,2.0,-3.0,2.0,-5.0,-1.0,-16.5,15.5,-32.0,-1.0,-16.5,69.5,-86.0,53.0,-6.5,9.5,-16.0,3.0,-1.0,2.0,-3.0,1.0,-2.5,0.5,-3.0,-2.0,-3.5,0.5,-4.0,-3.0,-0.5,0.5,-1.0,0.0,3.5,0.5,3.0,4.0,4.5,0.5,4.0,5.0,2.0,94.0,-92.0,96.0,3.5,6.5,-3.0,10.0,-2.0,3.0,-5.0,1.0,1.0,2.0,-1.0,3.0,1.0,5.0,-4.0,6.0
13630,13730,13680.0,5,3,0.914,0.01019803902718558,0.9,0.93,-0.042,0.004,-0.05,-0.04,0.016,0.014966629547095767,-0.01,0.03,-0.40199999999999997,0.021354156504062617,-0.43,-0.37,-0.016,0.032619012860600184,-0.06,0.03,-0.10800000000000001,0.026381811916545834,-0.15,-0.07,0.868,0.016000000000000014,0.85,0.89,-25.898000000000003,19.05950828326901,-49.81,-0.69,56.364,18.016816144924164,25.0,74.44,-93.574,12.604893652863558,-106.06,-71.75,0.9,-0.04,0.03,-0.43,-0.04,-0.1,0.87,-0.69,25.0,-71.75,-3.0,1.4142135623730951,-4.0,-1.0,-1.0,0.816496580927726,-2.0,0.0,-12.333333333333334,13.91242450313947,-32.0,-2.0,-19.333333333333332,72.21418758726632,-86.0,81.0,-4.0,10.708252269472673,-16.0,10.0,0.6666666666666666,1.247219128924647,-1.0,2.0,-3.3333333333333335,1.247219128924647,-5.0,-2.0,-2.0,0.816496580927726,-3.0,-1.0,0.3333333333333333,0.4714045207910317,0.0,1.0,0.0,2.943920288775949,-3.0,4.0,0.3333333333333333,2.8674417556808756,-3.0,4.0,4.333333333333333,91.32481712120875,-92.0,127.0,-6.666666666666667,5.185449728701348,-14.0,-3.0,-4.0,0.816496580927726,-5.0,-3.0,-3.3333333333333335,2.0548046676563256,-6.0,-1.0,-2.6666666666666665,1.8856180831641267,-4.0,0.0
13680,13780,13730.0,5,3,0.9,0.006324555320336764,0.89,0.91,-0.04,0.0,-0.04,-0.04,0.03,0.0,0.03,0.03,-0.43600000000000005,0.01019803902718558,-0.45,-0.42,-0.034,0.01019803902718557,-0.05,-0.02,-0.122,0.01939071942966531,-0.15,-0.1,0.8880000000000001,0.02400000000000002,0.85,0.91,0.1999999999999999,9.77314279032083,-6.87,19.25,13.201999999999998,23.403739359341706,-20.87,47.94,-58.226,18.736798659322787,-87.62,-38.44,0.89,-0.04,0.03,-0.45,-0.05,-0.13,0.91,19.25,-20.87,-38.44,-1.6666666666666667,1.699673171197595,-4.0,0.0,-1.0,0.816496580927726,-2.0,0.0,-4.0,2.160246899469287,-7.0,-2.0,-4.0,60.33793720924396,-53.0,81.0,3.3333333333333335,6.79869268479038,-6.0,10.0,-2.3333333333333335,4.189935029992178,-8.0,2.0,-2.3333333333333335,2.494438257849294,-5.0,1.0,-1.6666666666666667,0.4714045207910317,-2.0,-1.0,1.3333333333333333,1.247219128924647,0.0,3.0,0.0,2.943920288775949,-3.0,4.0,0.0,2.449489742783178,-3.0,3.0,31.0,68.00490178411161,-22.0,127.0,-10.0,4.96655480858378,-14.0,-3.0,-3.0,0.816496580927726,-4.0,-2.0,-5.0,1.4142135623730951,-6.0,-3.0,-1.6666666666666667,1.699673171197595,-4.0,0.0
13730,13830,13780.0,5,2,0.8939999999999999,0.00489897948556636,0.89,0.9,-0.04,0.0,-0.04,-0.04,0.024,0.008,0.01,0.03,-0.44800000000000006,0.007483314773547889,-0.46,-0.44,-0.04,0.008944271909999161,-0.05,-0.03,-0.098,0.0331058907144937,-0.13,-0.04,0.8859999999999999,0.025768197453450273,0.85,0.91,13.586000000000002,16.88199348418308,-6.44,38.5,-16.574,21.03476512823473,-40.75,15.75,-41.739999999999995,5.121078011512812,-51.63,-37.75,0.89,-0.04,0.01,-0.46,-0.04,-0.04,0.85,20.87,-40.75,-39.19,-0.5,0.5,-1.0,0.0,0.5,1.5,-1.0,2.0,-3.0,4.0,-7.0,1.0,-30.0,10.0,-40.0,-20.0,-1.5,7.5,-9.0,6.0,-6.0,2.0,-8.0,-4.0,-1.0,2.0,-3.0,1.0,-0.5,1.5,-2.0,1.0,1.0,2.0,-1.0,3.0,4.5,0.5,4.0,5.0,1.5,1.5,0.0,3.0,-3.0,9.0,-12.0,6.0,-9.5,3.5,-13.0,-6.0,-2.5,0.5,-3.0,-2.0,-5.0,1.0,-6.0,-4.0,-2.0,1.0,-3.0,-1.0
13780,13880,13830.0,5,2,0.884,0.00489897948556636,0.88,0.89,-0.042,0.004,-0.05,-0.04,0.008,0.0074833147735478825,0.0,0.02,-0.466,0.010198039027185555,-0.48,-0.45,-0.022,0.03249615361854384,-0.05,0.04,-0.052000000000000005,0.023151673805580447,-0.09,-0.02,0.8779999999999999,0.019390719429665335,0.85,0.9,11.262,16.079345011535764,-2.62,38.5,-38.186,5.552111670346699,-45.31,-29.12,-40.314,1.7196115840503046,-42.69,-37.75,0.88,-0.05,-0.0,-0.48,0.04,-0.06,0.9,-2.62,-29.12,-42.69,2.0,3.0,-1.0,5.0,3.0,1.0,2.0,4.0,-14.0,15.0,-29.0,1.0,-54.5,34.5,-89.0,-20.0,-0.5,8.5,-9.0,8.0,-1.5,2.5,-4.0,1.0,-1.5,1.5,-3.0,0.0,2.0,1.0,1.0,3.0,-2.5,1.5,-4.0,-1.0,2.5,2.5,0.0,5.0,-27.5,27.5,-55.0,0.0,-30.5,36.5,-67.0,6.0,-4.5,1.5,-6.0,-3.0,-1.0,2.0,-3.0,1.0,-4.5,0.5,-5.0,-4.0,-1.5,1.5,-3.0,0.0
13830,13930,13880.0,5,3,0.876,0.00489897948556636,0.87,0.88,-0.046,0.004898979485566357,-0.05,-0.04,0.002,0.004,0.0,0.01,-0.48200000000000004,0.011661903789690611,-0.5,-0.47,0.016,0.040298883359219766,-0.04,0.07,-0.038,0.016,-0.06,-0.02,0.89,0.010954451150103333,0.87,0.9,-6.324,7.121681262173982,-18.56,0.81,-16.560000000000002,28.068531133637897,-45.31,27.19,-47.064,7.795379657207212,-61.38,-40.5,0.87,-0.05,0.0,-0.5,0.03,-0.04,0.87,-18.56,27.19,-61.38,2.6666666666666665,1.699673171197595,1.0,5.0,0.3333333333333333,3.858612300930075,-5.0,4.0,-2.0,22.045407685048602,-29.0,25.0,-0.6666666666666666,68.18764958227814,-89.0,77.0,6.0,6.683312551921141,-3.0,13.0,-1.0,1.632993161855452,-3.0,1.0,-2.6666666666666665,2.0548046676563256,-5.0,0.0,1.6666666666666667,0.9428090415820634,1.0,3.0,-0.3333333333333333,3.2998316455372216,-4.0,4.0,-1.0,2.943920288775949,-5.0,2.0,-18.0,29.81051268708183,-55.0,18.0,2.0,52.73202695389839,-67.0,61.0,0.3333333333333333,9.285592184789413,-9.0,13.0,1.6666666666666667,1.699673171197595,0.0,4.0,-3.3333333333333335,1.699673171197595,-5.0,-1.0,0.6666666666666666,2.494438257849294,-2.0,4.0
13880,13980,13930.0,5,3,0.858,0.011661903789690611,0.84,0.87,-0.046,0.004898979485566357,-0.05,-0.04,0.012,0.0116619037896906,-0.0,0.03,-0.51,0.014142135623730963,-0.53,-0.49,0.022,0.027856776554368242,-0.01,0.07,-0.064,0.030066592756745815,-0.1,-0.02,0.874,0.013564659966250548,0.86,0.9,-12.138,7.0412794291946685,-20.19,-0.44,39.076,20.702959788397408,5.0,61.31,-73.812,16.97691302916994,-95.62,-49.31,0.84,-0.04,0.03,-0.53,0.0,-0.1,0.87,-0.44,61.31,-95.62,1.3333333333333333,0.4714045207910317,1.0,2.0,-1.6666666666666667,2.8674417556808756,-5.0,2.0,5.666666666666667,13.767917618708921,-6.0,25.0,-2.6666666666666665,70.78763231588474,-95.0,77.0,0.3333333333333333,9.285592184789413,-9.0,13.0,-0.6666666666666666,2.0548046676563256,-3.0,2.0,-2.0,2.943920288775949,-5.0,2.0,1.0,0.0,1.0,1.0,0.3333333333333333,2.6246692913372702,-2.0,4.0,-2.0,2.943920288775949,-5.0,2.0,2.0,14.445299120013633,-17.0,18.0,9.333333333333334,43.31538089665405,-45.0,61.0,7.333333333333333,11.728408057172787,-9.0,18.0,2.0,1.632993161855452,0.0,4.0,-1.6666666666666667,1.699673171197595,-4.0,0.0,1.0,2.449489742783178,-2.0,4.0
13930,14030,13980.0,5,2,0.844,0.01019803902718558,0.83,0.86,-0.038,0.007483314773547884,-0.05,-0.03,0.026000000000000002,0.010198039027185569,0.01,0.04,-0.534,0.018547236990991423,-0.56,-0.51,-0.012,0.026381811916545837,-0.06,0.02,-0.094,0.013564659966250536,-0.11,-0.07,0.8720000000000001,0.007483314773547889,0.86,0.88,-1.2760000000000002,13.26650911129224,-20.19,15.75,50.976,8.67298241667767,37.13,61.31,-85.848,6.984203318919061,-95.62,-74.44,0.83,-0.03,0.04,-0.56,-0.06,-0.1,0.88,15.75,37.13,-83.0,-1.5,2.5,-4.0,1.0,-0.5,1.5,-2.0,1.0,-9.5,3.5,-13.0,-6.0,-67.0,28.0,-95.0,-39.0,-7.5,1.5,-9.0,-6.0,-0.5,2.5,-3.0,2.0,-2.0,4.0,-6.0,2.0,-1.0,2.0,-3.0,1.0,-0.5,1.5,-2.0,1.0,-0.5,2.5,-3.0,2.0,5.0,0.0,5.0,5.0,-51.0,6.0,-57.0,-45.0,9.5,8.5,1.0,18.0,1.5,0.5,1.0,2.0,0.5,0.5,0.0,1.0,-1.5,2.5,-4.0,1.0
13980,14080,14030.0,5,2,0.82,0.014142135623730918,0.8,0.84,-0.024,0.004898979485566356,-0.03,-0.02,0.033999999999999996,0.004898979485566357,0.03,0.04,-0.572,0.017204650534085226,-0.6,-0.55,-0.044,0.024166091947189144,-0.07,-0.01,-0.096,0.024166091947189147,-0.13,-0.06,0.858,0.018330302779823376,0.84,0.88,24.776,14.573405367312063,10.0,47.63,15.352,28.853289171253945,-22.62,54.56,-82.374,5.697001316482206,-87.87,-72.12,0.8,-0.02,0.03,-0.6,-0.02,-0.06,0.84,47.63,-22.62,-87.44,-2.5,1.5,-4.0,-1.0,-3.0,4.0,-7.0,1.0,0.5,13.5,-13.0,14.0,-27.5,11.5,-39.0,-16.0,-8.0,2.0,-10.0,-6.0,-6.0,3.0,-9.0,-3.0,-5.5,0.5,-6.0,-5.0,-2.5,0.5,-3.0,-2.0,1.0,0.0,1.0,1.0,3.0,1.0,2.0,4.0,7.5,2.5,5.0,10.0,-32.5,24.5,-57.0,-8.0,-8.5,9.5,-18.0,1.0,-0.5,1.5,-2.0,1.0,2.0,1.0,1.0,3.0,-4.0,0.0,-4.0,-4.0
14030,14130,14080.0,5,3,0.8,0.014142135623730933,0.78,0.82,-0.02,0.0,-0.02,-0.02,0.028000000000000004,0.007483314773547883,0.02,0.04,-0.596,0.018547236990991423,-0.62,-0.57,-0.034,0.032,-0.07,0.02,-0.057999999999999996,0.045343136195018535,-0.13,-0.01,0.8480000000000001,0.011661903789690611,0.84,0.87,24.076,16.161125703366086,1.81,47.63,-9.209999999999999,14.585315903332365,-22.62,18.75,-85.85,8.595566298970649,-97.44,-72.12,0.78,-0.02,0.02,-0.62,-0.04,-0.01,0.87,1.81,-12.56,-90.81,-1.3333333333333333,0.4714045207910317,-2.0,-1.0,-1.0,4.242640687119285,-7.0,2.0,11.333333333333334,5.2493385826745405,4.0,16.0,-13.0,2.160246899469287,-16.0,-11.0,-1.3333333333333333,8.379870059984356,-10.0,10.0,-4.666666666666667,3.0912061651652345,-9.0,-2.0,-2.6666666666666665,1.699673171197595,-5.0,-1.0,-2.6666666666666665,0.4714045207910317,-3.0,-2.0,1.3333333333333333,1.247219128924647,0.0,3.0,3.6666666666666665,0.4714045207910317,3.0,4.0,0.6666666666666666,8.73053390247253,-11.0,10.0,8.666666666666666,13.474255287605157,-8.0,25.0,-4.666666666666667,9.741092797468305,-18.0,5.0,1.3333333333333333,3.39934634239519,-2.0,6.0,0.0,2.943920288775949,-4.0,3.0,-1.6666666666666667,2.0548046676563256,-4.0,1.0
14080,14180,14130.0,5,3,0.774,0.01019803902718558,0.76,0.79,-0.02,0.0,-0.02,-0.02,0.02,0.0,0.02,0.02,-0.63,0.014142135623730963,-0.65,-0.61,-0.007999999999999998,0.03709447398198282,-0.06,0.04,-0.05600000000000001,0.04270831300812525,-0.11,-0.01,0.874,0.03136877428271627,0.84,0.93,1.2000000000000006,14.109602404036764,-22.31,20.44,-0.17399999999999993,14.657045541308793,-18.56,19.81,-85.076,8.606979958150246,-97.44,-73.19,0.76,-0.02,0.02,-0.65,-0.06,-0.11,0.88,-22.31,19.81,-73.19,-0.6666666666666666,1.247219128924647,-2.0,1.0,2.0,0.0,2.0,2.0,-1.6666666666666667,17.21110752456745,-25.0,16.0,-12.333333333333334,1.247219128924647,-14.0,-11.0,1.6666666666666667,6.018490028422597,-4.0,10.0,-2.3333333333333335,0.4714045207910317,-3.0,-2.0,-2.0,0.816496580927726,-3.0,-1.0,-1.3333333333333333,2.357022603955158,-3.0,2.0,0.6666666666666666,1.699673171197595,-1.0,3.0,3.6666666666666665,0.4714045207910317,3.0,4.0,-12.0,12.675435561221029,-28.0,3.0,12.333333333333334,9.285592184789413,3.0,25.0,2.3333333333333335,2.494438257849294,-1.0,5.0,0.6666666666666666,4.109609335312651,-4.0,6.0,0.0,2.943920288775949,-4.0,3.0,-0.6666666666666666,1.247219128924647,-2.0,1.0
14130,14230,14180.0,5,2,0.758,0.011661903789690611,0.74,0.77,-0.022,0.003999999999999999,-0.03,-0.02,0.024,0.004898979485566356,0.02,0.03,-0.65,0.014142135623730963,-0.67,-0.63,-0.026000000000000002,0.04543126676640219,-0.09,0.04,-0.06999999999999999,0.030331501776206204,-0.11,-0.03,0.876,0.028705400188814675,0.85,0.93,-16.988,17.569999886169608,-39.13,8.75,7.564,10.911087205223868,-8.06,19.81,-77.526,4.772134113790181,-85.44,-72.0,0.74,-0.03,0.03,-0.67,-0.02,-0.03,0.86,-39.13,-8.06,-78.5,0.5,0.5,0.0,1.0,1.5,0.5,1.0,2.0,2.5,27.5,-25.0,30.0,23.0,37.0,-14.0,60.0,-5.0,4.0,-9.0,-1.0,-5.0,3.0,-8.0,-2.0,-3.5,0.5,-4.0,-3.0,0.5,1.5,-1.0,2.0,1.0,2.0,-1.0,3.0,1.5,2.5,-1.0,4.0,-7.0,21.0,-28.0,14.0,5.0,2.0,3.0,7.0,2.0,1.0,1.0,3.0,-1.0,3.0,-4.0,2.0,1.5,1.5,0.0,3.0,1.5,2.5,-1.0,4.0
14180,14280,14230.0,5,2,0.73,0.014142135623730963,0.71,0.75,-0.032,0.007483314773547883,-0.04,-0.02,0.03,0.0,0.03,0.03,-0.6799999999999999,0.014142135623730918,-0.7,-0.66,-0.016,0.061514225996918796,-0.09,0.08,-0.072,0.02925747767665559,-0.11,-0.03,0.9119999999999999,0.043081318457076016,0.86,0.96,-22.6,15.243960115403084,-39.13,2.25,-4.8740000000000006,10.760428615998528,-15.0,15.63,-76.662,4.738820106313385,-84.06,-71.06,0.71,-0.04,0.03,-0.7,-0.07,-0.11,0.96,2.25,-11.63,-71.06,-0.5,0.5,-1.0,0.0,-2.5,3.5,-6.0,1.0,3.5,26.5,-23.0,30.0,4.5,55.5,-51.0,60.0,-11.5,2.5,-14.0,-9.0,-3.0,5.0,-8.0,2.0,-3.0,1.0,-4.0,-2.0,-4.5,3.5,-8.0,-1.0,1.5,1.5,0.0,3.0,-1.5,0.5,-2.0,-1.0,-1.5,15.5,-17.0,14.0,-16.0,23.0,-39.0,7.0,3.0,2.0,1.0,5.0,1.5,0.5,1.0,2.0,1.5,1.5,0.0,3.0,4.5,0.5,4.0,5.0
14230,14330,14280.0,5,3,0.712,0.011661903789690611,0.7,0.73,-0.038,0.004,-0.04,-0.03,0.027999999999999997,0.003999999999999999,0.02,0.03,-0.7,0.014142135623730933,-0.72,-0.68,-0.016000000000000004,0.058172158288995954,-0.07,0.08,-0.088,0.017204650534085254,-0.11,-0.06,0.9400000000000001,0.016733200530681485,0.91,0.96,5.402,28.883909292199352,-33.81,50.88,-19.088,11.260785762991853,-36.81,-5.31,-69.1,11.265290053966654,-84.06,-54.38,0.7,-0.04,0.02,-0.72,-0.04,-0.08,0.91,50.88,-36.81,-54.38,-4.333333333333333,2.494438257849294,-7.0,-1.0,-2.0,3.265986323710904,-6.0,2.0,12.0,30.342489460600735,-23.0,51.0,-45.666666666666664,14.383632673594278,-60.0,-26.0,-6.0,6.164414002968976,-14.0,1.0,-0.3333333333333333,1.699673171197595,-2.0,2.0,-2.0,1.632993161855452,-4.0,0.0,-4.666666666666667,2.494438257849294,-8.0,-2.0,-1.0,0.816496580927726,-2.0,0.0,-0.6666666666666666,1.247219128924647,-2.0,1.0,4.333333333333333,20.499322482029065,-17.0,32.0,-23.666666666666668,11.897712198383164,-39.0,-10.0,-2.0,5.0990195135927845,-7.0,5.0,-0.3333333333333333,1.247219128924647,-2.0,1.0,0.3333333333333333,2.494438257849294,-3.0,3.0,1.0,2.943920288775949,-2.0,5.0
14280,14380,14330.0,5,3,0.692,0.007483314773547854,0.68,0.7,-0.032,0.007483314773547883,-0.04,-0.02,0.01,0.014142135623730949,-0.01,0.03,-0.722,0.007483314773547889,-0.73,-0.71,-0.006000000000000001,0.0417612260356422,-0.07,0.04,-0.05600000000000001,0.03136877428271625,-0.09,0.0,0.9099999999999999,0.02280350850198274,0.88,0.95,42.525999999999996,12.486638618939846,20.44,56.31,-20.75,11.019250428227867,-36.81,-8.19,-47.714000000000006,11.624182723959564,-58.31,-25.94,0.68,-0.02,-0.01,-0.73,0.02,0.0,0.91,38.5,-8.19,-25.94,-6.0,0.816496580927726,-7.0,-5.0,-1.0,2.160246899469287,-3.0,2.0,15.666666666666666,26.284765338288427,-12.0,51.0,-29.666666666666668,23.41414577178126,-60.0,-3.0,-4.333333333333333,4.109609335312651,-9.0,1.0,-1.3333333333333333,0.4714045207910317,-2.0,-1.0,-3.0,2.160246899469287,-5.0,0.0,-2.0,1.632993161855452,-4.0,0.0,-1.3333333333333333,0.4714045207910317,-2.0,-1.0,-0.6666666666666666,1.247219128924647,-2.0,1.0,8.666666666666666,16.519348924485158,-4.0,32.0,-7.333333333333333,13.199326582148887,-22.0,10.0,-5.333333333333333,1.247219128924647,-7.0,-4.0,-1.0,0.816496580927726,-2.0,0.0,-1.6666666666666667,1.8856180831641267,-3.0,1.0,0.0,1.632993161855452,-2.0,2.0
14330,14430,14380.0,5,2,0.6839999999999999,0.004898979485566305,0.68,0.69,-0.024,0.004898979485566356,-0.03,-0.02,-0.006,0.01019803902718557,-0.02,0.01,-0.728,0.0040000000000000036,-0.73,-0.72,0.028000000000000004,0.02638181191654584,-0.01,0.07,-0.024,0.03382306905057552,-0.06,0.03,0.882,0.027856776554368263,0.83,0.91,41.574,9.482692866480493,27.75,56.31,-16.312,6.959440782131852,-24.31,-8.19,-28.875999999999998,18.484436264057393,-54.13,-7.69,0.68,-0.02,-0.02,-0.73,0.07,-0.04,0.83,27.75,-24.31,-7.69,-5.0,1.0,-6.0,-4.0,-5.0,2.0,-7.0,-3.0,-6.0,6.0,-12.0,0.0,-20.5,17.5,-38.0,-3.0,-10.5,1.5,-12.0,-9.0,-2.5,1.5,-4.0,-1.0,-2.5,2.5,-5.0,0.0,-2.0,2.0,-4.0,0.0,0.0,1.0,-1.0,1.0,0.5,2.5,-2.0,3.0,-26.0,22.0,-48.0,-4.0,8.0,2.0,6.0,10.0,-2.5,2.5,-5.0,0.0,2.5,3.5,-1.0,6.0,0.5,3.5,-3.0,4.0,5.5,3.5,2.0,9.0
14380,14480,14430.0,5,2,0.68,0.0,0.68,0.68,-0.02,0.0,-0.02,-0.02,-0.022,0.0074833147735478825,-0.03,-0.01,-0.73,0.0,-0.73,-0.73,0.026000000000000002,0.03006659275674582,-0.01,0.07,0.0019999999999999996,0.029933259094191533,-0.04,0.04,0.8539999999999999,0.023323807579381222,0.83,0.89,21.012,11.082013174509406,7.06,38.81,-20.648,3.3319627849062177,-24.31,-16.56,-8.1,4.940534384051992,-12.25,1.31,0.68,-0.02,-0.03,-0.73,0.02,0.0,0.83,16.5,-24.06,1.31,-2.0,2.0,-4.0,0.0,-5.0,2.0,-7.0,-3.0,3.5,3.5,0.0,7.0,-32.0,6.0,-38.0,-26.0,-5.5,6.5,-12.0,1.0,-2.5,1.5,-4.0,-1.0,-2.5,2.5,-5.0,0.0,-2.0,2.0,-4.0,0.0,0.0,1.0,-1.0,1.0,2.0,1.0,1.0,3.0,-19.5,28.5,-48.0,9.0,-3.5,9.5,-13.0,6.0,1.5,1.5,0.0,3.0,2.0,4.0,-2.0,6.0,2.5,1.5,1.0,4.0,4.5,4.5,0.0,9.0
14430,14530,14480.0,5,3,0.68,0.0,0.68,0.68,-0.022,0.003999999999999999,-0.03,-0.02,-0.032,0.007483314773547883,-0.04,-0.02,-0.73,0.0,-0.73,-0.73,0.041999999999999996,0.03059411708155671,0.0,0.09,3.4694469519536144e-19,0.024494897427831782,-0.03,0.04,0.8480000000000001,0.013266499161421611,0.83,0.87,13.036000000000001,3.6600196720782803,7.06,16.5,-25.986,7.687732045278374,-39.13,-16.56,3.624,14.239871628634859,-12.25,20.62,0.68,-0.03,-0.04,-0.73,0.09,0.01,0.85,10.56,-39.13,20.62,-2.3333333333333335,3.2998316455372216,-7.0,0.0,-3.3333333333333335,0.4714045207910317,-4.0,-3.0,-2.3333333333333335,7.760297817881877,-12.0,7.0,-19.666666666666668,4.496912521077347,-26.0,-16.0,3.6666666666666665,3.091206165165235,1.0,8.0,-2.3333333333333335,1.247219128924647,-4.0,-1.0,-4.333333333333333,0.9428090415820634,-5.0,-3.0,-5.666666666666667,4.0276819911981905,-9.0,0.0,0.0,1.4142135623730951,-1.0,2.0,0.3333333333333333,2.494438257849294,-3.0,3.0,0.0,7.788880963698615,-10.0,9.0,1.6666666666666667,16.67999467092907,-13.0,25.0,0.0,4.242640687119285,-6.0,3.0,-2.6666666666666665,2.494438257849294,-6.0,0.0,-1.3333333333333333,1.699673171197595,-3.0,1.0,-0.6666666666666666,0.9428090415820634,-2.0,0.0
14480,14580,14530.0,5,3,0.6839999999999999,0.004898979485566305,0.68,0.69,-0.03,0.006324555320336759,-0.04,-0.02,-0.046,0.004898979485566357,-0.05,-0.04,-0.726,0.00489897948556636,-0.73,-0.72,0.11200000000000002,0.06523802572120037,0.05,0.23,0.013999999999999999,0.05535341001239219,-0.03,0.12,0.946,0.11429785649783637,0.84,1.14,10.036,12.610932717289394,-10.81,27.69,-20.488000000000003,24.19731836381875,-49.88,12.94,15.85,5.572948950062256,5.75,20.62,0.69,-0.03,-0.05,-0.72,0.13,-0.0,0.89,27.69,2.5,5.75,-2.6666666666666665,3.091206165165235,-7.0,0.0,-3.0,0.816496580927726,-4.0,-2.0,0.0,10.708252269472673,-12.0,14.0,-14.0,3.559026084010437,-17.0,-9.0,1.6666666666666667,5.312459150169743,-5.0,8.0,-2.6666666666666665,0.9428090415820634,-4.0,-2.0,-2.0,2.943920288775949,-5.0,2.0,-5.666666666666667,4.0276819911981905,-9.0,0.0,0.3333333333333333,1.247219128924647,-1.0,2.0,-0.3333333333333333,2.494438257849294,-3.0,3.0,-6.333333333333333,5.185449728701348,-10.0,1.0,6.0,13.73559851869101,-7.0,25.0,-1.6666666666666667,3.6817870057290873,-6.0,3.0,-2.0,2.8284271247461903,-6.0,0.0,-2.0,0.816496580927726,-3.0,-1.0,-0.3333333333333333,1.247219128924647,-2.0,1.0
14530,14630,14580.0,5,2,0.688,0.003999999999999959,0.68,0.69,-0.032,0.004,-0.04,-0.03,-0.05,0.0,-0.05,-0.05,-0.722,0.0040000000000000036,-0.73,-0.72,0.11400000000000002,0.06343500610861483,0.06,0.23,0.052000000000000005,0.0577581163127746,-0.03,0.12,0.962,0.10342146779078314,0.85,1.14,6.838000000000001,12.743907407071037,-10.81,27.69,-3.8520000000000003,23.580125020872984,-49.88,13.81,7.364,8.309210792849102,-3.12,19.5,0.69,-0.03,-0.05,-0.72,0.09,0.07,0.85,-0.19,1.37,-3.12,0.0,1.0,-1.0,1.0,-13.5,11.5,-25.0,-2.0,9.0,5.0,4.0,14.0,5.0,14.0,-9.0,19.0,-7.0,2.0,-9.0,-5.0,-2.0,0.0,-2.0,-2.0,-0.5,2.5,-3.0,2.0,-1.5,1.5,-3.0,0.0,3.5,3.5,0.0,7.0,-59.0,58.0,-117.0,-1.0,-45.0,35.0,-80.0,-10.0,40.0,40.0,0.0,80.0,2.0,4.0,-2.0,6.0,6.5,6.5,0.0,13.0,8.0,9.0,-1.0,17.0,7.5,6.5,1.0,14.0
14580,14680,14630.0,5,2,0.6859999999999999,0.004898979485566306,0.68,0.69,-0.027999999999999997,0.003999999999999999,-0.03,-0.02,-0.05,0.0,-0.05,-0.05,-0.726,0.00489897948556636,-0.73,-0.72,0.06999999999999999,0.014142135623730949,0.05,0.09,0.062,0.021354156504062624,0.04,0.1,0.8859999999999999,0.027276363393971735,0.85,0.92,0.5479999999999999,7.110258504442719,-8.63,10.88,6.348000000000001,6.7110338994822545,-2.44,14.38,-4.65,5.029731603177251,-11.25,0.81,0.68,-0.02,-0.05,-0.73,0.05,0.05,0.91,5.87,14.38,0.19,1.0,0.0,1.0,1.0,15.0,40.0,-25.0,55.0,7.0,3.0,4.0,10.0,1.0,18.0,-17.0,19.0,-7.5,1.5,-9.0,-6.0,-0.5,1.5,-2.0,1.0,-2.0,1.0,-3.0,-1.0,-2.0,1.0,-3.0,-1.0,2.0,5.0,-3.0,7.0,-34.5,82.5,-117.0,48.0,-30.0,50.0,-80.0,20.0,-12.0,92.0,-104.0,80.0,3.0,3.0,0.0,6.0,6.5,6.5,0.0,13.0,8.0,9.0,-1.0,17.0,6.0,8.0,-2.0,14.0
14630,14730,14680.0,5,3,0.6839999999999999,0.004898979485566305,0.68,0.69,-0.024,0.004898979485566356,-0.03,-0.02,-0.05,0.0,-0.05,-0.05,-0.73,0.0,-0.73,-0.73,0.066,0.018547236990991405,0.04,0.09,0.042,0.007483314773547884,0.03,0.05,0.8699999999999999,0.027568097504180468,0.83,0.91,2.3099999999999996,8.0475387541782,-8.63,13.25,6.473999999999999,6.408736536947045,-2.44,14.38,-3.938,5.701317040824865,-11.25,3.37,0.68,-0.02,-0.05,-0.73,0.09,0.04,0.86,6.25,2.62,-2.12,-2.0,3.559026084010437,-7.0,1.0,9.333333333333334,51.09685791600975,-62.0,55.0,7.0,2.943920288775949,3.0,10.0,-22.333333333333332,8.259674462242577,-34.0,-16.0,-2.3333333333333335,2.6246692913372702,-6.0,0.0,-2.0,2.943920288775949,-6.0,1.0,-2.0,0.816496580927726,-3.0,-1.0,-2.0,3.7416573867739413,-7.0,2.0,-0.6666666666666666,2.0548046676563256,-3.0,2.0,58.333333333333336,49.12795085850371,4.0,123.0,4.666666666666667,13.097921802925667,-12.0,20.0,-41.333333333333336,44.43222054120436,-104.0,-6.0,-2.3333333333333335,1.699673171197595,-4.0,0.0,-1.3333333333333333,1.247219128924647,-3.0,0.0,0.6666666666666666,1.699673171197595,-1.0,3.0,-0.6666666666666666,1.8856180831641267,-2.0,2.0
14680,14780,14730.0,5,3,0.682,0.003999999999999959,0.68,0.69,-0.02,0.0,-0.02,-0.02,-0.046,0.004898979485566357,-0.05,-0.04,-0.73,0.0,-0.73,-0.73,0.068,0.02785677655436824,0.03,0.1,0.044,0.024166091947189144,0.02,0.09,0.876,0.04029888335921976,0.83,0.95,-0.8740000000000002,10.668643025239904,-18.37,13.25,10.088,4.707778244565052,2.62,14.13,-10.65,10.066880350932955,-21.62,3.37,0.68,-0.02,-0.04,-0.73,0.1,0.09,0.95,-18.37,14.13,-21.62,-1.0,4.546060565661952,-7.0,4.0,-42.0,56.50368719532086,-99.0,35.0,-10.333333333333334,22.484562605386735,-42.0,8.0,-14.666666666666666,16.35712552851373,-34.0,6.0,-0.3333333333333333,0.4714045207910317,-1.0,0.0,-2.3333333333333335,2.6246692913372702,-6.0,0.0,-2.3333333333333335,0.4714045207910317,-3.0,-2.0,-1.6666666666666667,3.858612300930075,-7.0,2.0,0.6666666666666666,1.247219128924647,-1.0,2.0,-0.3333333333333333,102.51612339313048,-128.0,123.0,-13.333333333333334,16.35712552851373,-34.0,6.0,-28.666666666666668,26.599916457680003,-66.0,-6.0,-1.6666666666666667,2.6246692913372702,-4.0,2.0,-1.3333333333333333,1.247219128924647,-3.0,0.0,1.3333333333333333,1.247219128924647,0.0,3.0,0.3333333333333333,1.699673171197595,-2.0,2.0
14730,14830,14780.0,5,2,0.678,0.0040000000000000036,0.67,0.68,-0.016,0.004898979485566357,-0.02,-0.01,-0.042,0.004,-0.05,-0.04,-0.734,0.00489897948556636,-0.74,-0.73,0.05600000000000001,0.03611094017053558,-0.0,0.1,0.05600000000000001,0.02576819745345025,0.02,0.09,0.9119999999999999,0.035440090293338694,0.86,0.95,-1.3740000000000006,9.942906214985637,-18.37,9.19,16.176,7.019956125219017,6.44,27.94,-18.024,5.523421403441892,-24.31,-11.31,0.67,-0.01,-0.04,-0.74,-0.0,0.08,0.94,9.19,18.31,-11.31,1.0,3.0,-2.0,4.0,-60.0,39.0,-99.0,-21.0,-42.0,0.0,-42.0,-42.0,4.0,2.0,2.0,6.0,-6.5,6.5,-13.0,0.0,-2.0,2.0,-4.0,0.0,-3.5,1.5,-5.0,-2.0,-0.5,0.5,-1.0,0.0,3.0,2.0,1.0,5.0,-86.5,41.5,-128.0,-45.0,-22.0,12.0,-34.0,-10.0,-25.0,41.0,-66.0,16.0,6.5,4.5,2.0,11.0,1.0,1.0,0.0,2.0,0.5,0.5,0.0,1.0,4.5,3.5,1.0,8.0
14780,14880,14830.0,5,2,0.672,0.0040000000000000036,0.67,0.68,-0.008,0.004,-0.01,-0.0,-0.036,0.004898979485566357,-0.04,-0.03,-0.742,0.0040000000000000036,-0.75,-0.74,0.046,0.04758150901348128,-0.01,0.12,0.054000000000000006,0.02576819745345025,0.01,0.08,0.906,0.04223742416388575,0.85,0.95,-0.45000000000000034,8.000137498818379,-11.13,9.19,18.875999999999998,5.927004639782223,10.88,27.94,-20.15,9.994592537967717,-34.19,-6.44,0.67,-0.0,-0.03,-0.75,-0.01,0.01,0.86,-11.13,22.44,-34.19,-1.5,0.5,-2.0,-1.0,-19.5,1.5,-21.0,-18.0,-27.5,14.5,-42.0,-13.0,13.5,11.5,2.0,25.0,3.5,16.5,-13.0,20.0,1.0,5.0,-4.0,6.0,-1.0,4.0,-5.0,3.0,2.5,3.5,-1.0,6.0,0.5,4.5,-4.0,5.0,-3.0,42.0,-45.0,39.0,-15.0,5.0,-20.0,-10.0,-22.0,38.0,-60.0,16.0,-9.0,20.0,-29.0,11.0,-3.5,5.5,-9.0,2.0,-4.5,4.5,-9.0,0.0,-0.5,8.5,-9.0,8.0
14830,14930,14880.0,5,2,0.666,0.00489897948556636,0.66,0.67,-0.004,0.004898979485566357,-0.01,-0.0,-0.03,0.006324555320336759,-0.04,-0.02,-0.746,0.00489897948556636,-0.75,-0.74,0.019999999999999997,0.05932958789676531,-0.05,0.12,0.05800000000000001,0.026381811916545837,0.01,0.08,0.9,0.03898717737923586,0.85,0.95,-7.426,3.8513197737918365,-11.63,-1.0,13.35,6.630701320373284,2.37,22.44,-23.1,9.40389919129294,-34.19,-6.44,0.66,-0.0,-0.02,-0.75,-0.01,0.08,0.93,-6.25,2.37,-21.25,0.0,1.0,-1.0,1.0,4.0,22.0,-18.0,26.0,-14.0,1.0,-15.0,-13.0,40.0,15.0,25.0,55.0,12.5,7.5,5.0,20.0,3.5,2.5,1.0,6.0,0.5,2.5,-2.0,3.0,4.5,1.5,3.0,6.0,-2.0,2.0,-4.0,0.0,6.0,33.0,-27.0,39.0,-19.0,1.0,-20.0,-18.0,-55.0,5.0,-60.0,-50.0,-18.5,10.5,-29.0,-8.0,-7.0,2.0,-9.0,-5.0,-3.5,5.5,-9.0,2.0,-4.0,5.0,-9.0,1.0
14880,14980,14930.0,5,3,0.658,0.0040000000000000036,0.65,0.66,0.0,0.0,-0.0,-0.0,-0.027999999999999997,0.003999999999999999,-0.03,-0.02,-0.752,0.0040000000000000036,-0.76,-0.75,-0.004000000000000001,0.03136877428271625,-0.05,0.04,0.05800000000000001,0.01469693845669907,0.04,0.08,0.9120000000000001,0.016000000000000014,0.89,0.93,-3.0380000000000003,5.8959016274018685,-11.63,5.25,2.2,7.422546732759587,-4.62,16.25,-20.098000000000003,5.875513254176183,-29.12,-11.25,0.65,-0.0,-0.03,-0.76,0.02,0.05,0.89,-4.0,-2.94,-21.75,2.6666666666666665,3.091206165165235,0.0,7.0,38.666666666666664,31.510139461590597,8.0,82.0,-26.333333333333332,13.299958228840003,-45.0,-15.0,23.666666666666668,24.225789747475496,-4.0,55.0,3.3333333333333335,1.247219128924647,2.0,5.0,1.0,3.265986323710904,-3.0,5.0,1.3333333333333333,2.494438257849294,-2.0,4.0,4.333333333333333,2.6246692913372702,2.0,8.0,0.6666666666666666,0.4714045207910317,0.0,1.0,9.666666666666666,26.04269997949948,-27.0,31.0,-3.3333333333333335,27.353650985238193,-27.0,35.0,19.333333333333332,49.032868794536405,-50.0,55.0,2.0,10.801234497346433,-8.0,17.0,-2.0,2.160246899469287,-5.0,0.0,1.6666666666666667,1.247219128924647,0.0,3.0,1.0,1.632993161855452,-1.0,3.0
14930,15030,14980.0,5,3,0.654,0.00489897948556636,0.65,0.66,0.0,0.0,-0.0,-0.0,-0.026000000000000002,0.004898979485566356,-0.03,-0.02,-0.756,0.00489897948556636,-0.76,-0.75,0.0,0.025298221281347035,-0.02,0.04,0.04,0.01549193338482967,0.01,0.05,0.916,0.018547236990991395,0.89,0.94,-2.85,5.59047761823621,-10.44,5.25,-3.7359999999999998,2.1562337535619833,-6.5,-0.06,-19.924,5.661231668108981,-28.44,-11.25,0.65,-0.0,-0.02,-0.76,-0.02,0.01,0.94,-6.5,-6.5,-21.06,2.6666666666666665,3.091206165165235,0.0,7.0,43.333333333333336,30.3021818063027,8.0,82.0,-29.666666666666668,11.115554667022044,-45.0,-19.0,10.333333333333334,10.338708279513881,-4.0,20.0,1.6666666666666667,1.247219128924647,0.0,3.0,2.6666666666666665,4.0276819911981905,-3.0,6.0,4.0,1.632993161855452,2.0,6.0,4.666666666666667,2.494438257849294,2.0,8.0,-0.3333333333333333,1.8856180831641267,-3.0,1.0,30.333333333333332,4.109609335312651,25.0,35.0,-13.666666666666666,35.56527644893104,-49.0,35.0,50.333333333333336,5.2493385826745405,43.0,55.0,7.0,8.16496580927726,-3.0,17.0,0.0,0.816496580927726,-1.0,1.0,1.0,1.4142135623730951,0.0,3.0,0.0,2.160246899469287,-2.0,3.0
14980,15080,15030.0,5,2,0.65,0.0,0.65,0.65,0.002,0.004,-0.0,0.01,-0.022,0.003999999999999999,-0.03,-0.02,-0.76,0.0,-0.76,-0.76,-0.12,0.2889290570364981,-0.69,0.11,0.02,0.05366563145999496,-0.08,0.07,0.9019999999999999,0.05230678732248806,0.8,0.94,0.8900000000000003,10.72537924737396,-10.44,14.88,-10.112,19.175231315423552,-42.56,16.87,1.2140000000000004,21.432422728193846,-28.44,22.19,0.65,-0.0,-0.03,-0.76,0.11,0.05,0.94,14.88,-13.81,15.63,0.0,1.0,-1.0,1.0,18.0,22.0,-4.0,40.0,-20.0,5.0,-25.0,-15.0,-19.0,34.0,-53.0,15.0,-7.5,7.5,-15.0,0.0,2.5,3.5,-1.0,6.0,3.5,2.5,1.0,6.0,1.5,2.5,-1.0,4.0,-0.5,2.5,-3.0,2.0,45.0,10.0,35.0,55.0,-31.5,17.5,-49.0,-14.0,-11.0,54.0,-65.0,43.0,-4.0,11.0,-15.0,7.0,-2.5,3.5,-6.0,1.0,-2.0,2.0,-4.0,0.0,-3.0,1.0,-4.0,-2.0
15030,15130,15080.0,5,2,0.652,0.0040000000000000036,0.65,0.66,0.002,0.004,0.0,0.01,-0.026000000000000002,0.004898979485566356,-0.03,-0.02,-0.758,0.0040000000000000036,-0.76,-0.75,-0.12,0.2895513771336617,-0.69,0.11,0.034,0.061514225996918796,-0.08,0.1,0.884,0.05161395160225574,0.8,0.94,12.052000000000001,9.561789372288013,-6.37,19.62,-11.012,19.01945782613164,-42.56,16.87,16.088,6.934460036657505,3.12,22.19,0.66,0.0,-0.03,-0.75,-0.05,0.1,0.92,19.25,-5.87,21.75,0.0,1.0,-1.0,1.0,11.0,15.0,-4.0,26.0,-23.0,8.0,-31.0,-15.0,-34.5,18.5,-53.0,-16.0,-10.0,5.0,-15.0,-5.0,-0.5,0.5,-1.0,0.0,-0.5,1.5,-2.0,1.0,-0.5,0.5,-1.0,0.0,1.5,0.5,1.0,2.0,66.0,11.0,55.0,77.0,12.0,26.0,-14.0,38.0,-71.5,6.5,-78.0,-65.0,-11.5,3.5,-15.0,-8.0,-3.0,3.0,-6.0,0.0,-1.5,2.5,-4.0,1.0,-2.0,2.0,-4.0,0.0
15080,15180,15130.0,5,3,0.664,0.01019803902718558,0.65,0.68,0.0,0.0,0.0,0.0,-0.036,0.004898979485566357,-0.04,-0.03,-0.746,0.01019803902718558,-0.76,-0.73,0.02,0.040987803063838396,-0.05,0.07,0.064,0.029393876913398138,0.03,0.1,0.892,0.043543082114154495,0.83,0.94,11.012,9.85720325447335,-3.25,19.62,-14.636000000000001,9.435811782777357,-32.81,-5.87,46.122,30.633051039685878,3.12,85.62,0.68,-0.0,-0.04,-0.73,0.07,0.07,0.83,-3.25,-13.75,85.62,2.0,2.160246899469287,0.0,5.0,-4.666666666666667,40.5736641458745,-62.0,26.0,-0.6666666666666666,21.452790546272112,-31.0,15.0,-15.333333333333334,4.109609335312651,-20.0,-10.0,-0.6666666666666666,3.0912061651652345,-5.0,2.0,2.3333333333333335,2.0548046676563256,0.0,5.0,-1.3333333333333333,4.109609335312651,-6.0,4.0,0.0,0.816496580927726,-1.0,1.0,3.0,1.4142135623730951,1.0,4.0,12.333333333333334,47.555815160246766,-36.0,77.0,18.666666666666668,13.695092389449425,8.0,38.0,-9.0,63.88009601328623,-78.0,76.0,-0.3333333333333333,13.021349989749739,-11.0,18.0,-0.6666666666666666,0.9428090415820634,-2.0,0.0,0.3333333333333333,2.494438257849294,-3.0,3.0,-0.3333333333333333,0.4714045207910317,-1.0,0.0
15130,15230,15180.0,5,3,0.682,0.017204650534085222,0.66,0.71,0.0,0.0,0.0,0.0,-0.04,0.0,-0.04,-0.04,-0.73,0.014142135623730963,-0.75,-0.71,0.074,0.03720215047547654,0.02,0.12,0.05600000000000001,0.0233238075793812,0.03,0.09,0.8800000000000001,0.04516635916254487,0.83,0.94,7.276000000000001,7.426591681249212,-3.25,18.0,-11.286000000000001,12.82874678212958,-32.81,6.56,78.322,17.01490570059088,47.81,93.12,0.71,-0.0,-0.04,-0.71,0.12,0.03,0.88,10.0,6.56,92.75,2.6666666666666665,2.0548046676563256,0.0,5.0,-2.3333333333333335,42.429025704371554,-62.0,33.0,11.666666666666666,4.027681991198191,6.0,15.0,-14.0,4.320493798938574,-20.0,-10.0,-1.0,3.559026084010437,-6.0,2.0,2.0,2.449489742783178,-1.0,5.0,1.3333333333333333,5.2493385826745405,-6.0,6.0,-0.6666666666666666,1.247219128924647,-2.0,1.0,1.6666666666666667,3.299831645537222,-3.0,4.0,-13.666666666666666,15.839472494022298,-36.0,-1.0,7.0,2.943920288775949,3.0,10.0,22.666666666666668,41.42731251508143,-25.0,76.0,3.6666666666666665,11.841546445554407,-11.0,18.0,0.3333333333333333,2.0548046676563256,-2.0,3.0,-0.6666666666666666,2.6246692913372702,-3.0,3.0,0.6666666666666666,1.699673171197595,-1.0,3.0
15180,15280,15230.0,5,2,0.716,0.014966629547095779,0.69,0.73,0.0,0.0,-0.0,-0.0,-0.04,0.0,-0.04,-0.04,-0.7,0.014142135623730933,-0.72,-0.68,0.05,0.060332412515993424,-0.04,0.12,0.033999999999999996,0.01624807680927192,0.01,0.06,0.89,0.032863353450309996,0.83,0.92,7.0,4.9453210209247285,-1.62,11.81,3.5140000000000002,9.351322045571953,-9.31,15.13,83.062,9.895387612418224,67.69,93.12,0.73,-0.0,-0.04,-0.68,-0.04,0.03,0.91,11.81,-9.31,67.69,0.5,2.5,-2.0,3.0,17.5,15.5,2.0,33.0,10.5,4.5,6.0,15.0,-53.0,41.0,-94.0,-12.0,-16.0,10.0,-26.0,-6.0,-3.0,2.0,-5.0,-1.0,0.5,5.5,-5.0,6.0,-3.0,1.0,-4.0,-2.0,-1.5,1.5,-3.0,0.0,-6.0,5.0,-11.0,-1.0,2.0,1.0,1.0,3.0,1.5,15.5,-14.0,17.0,-1.0,5.0,-6.0,4.0,3.0,0.0,3.0,3.0,-2.5,0.5,-3.0,-2.0,-1.0,4.0,-5.0,3.0
15230,15330,15280.0,5,2,0.734,0.01019803902718558,0.72,0.75,0.0,0.0,-0.0,-0.0,-0.044,0.004898979485566357,-0.05,-0.04,-0.6799999999999999,0.014142135623730918,-0.7,-0.66,0.046,0.056071383075504744,-0.04,0.11,0.041999999999999996,0.02135415650406262,0.01,0.07,0.8859999999999999,0.03498571136907183,0.83,0.92,7.388,5.821200563457679,-1.62,15.19,0.7880000000000003,10.495527428385865,-11.19,15.13,72.55,7.792681181724298,63.25,85.81,0.75,-0.0,-0.05,-0.66,0.1,0.06,0.83,6.94,-1.25,63.25,-0.5,1.5,-2.0,1.0,2.0,0.0,2.0,2.0,6.5,8.5,-2.0,15.0,-31.5,62.5,-94.0,31.0,-9.0,17.0,-26.0,8.0,-3.5,1.5,-5.0,-2.0,-1.0,4.0,-5.0,3.0,-1.0,3.0,-4.0,2.0,-1.5,1.5,-3.0,0.0,-2.5,8.5,-11.0,6.0,1.5,0.5,1.0,2.0,-16.5,2.5,-19.0,-14.0,-4.5,1.5,-6.0,-3.0,3.5,0.5,3.0,4.0,0.0,3.0,-3.0,3.0,-3.5,1.5,-5.0,-2.0
15280,15380,15330.0,5,3,0.756,0.01019803902718558,0.74,0.77,0.0,0.0,-0.0,-0.0,-0.05,0.0,-0.05,-0.05,-0.654,0.01019803902718558,-0.67,-0.64,0.086,0.020591260281974,0.05,0.11,0.06,0.01414213562373095,0.04,0.08,0.868,0.041665333311999356,0.82,0.93,8.686,3.99084251756443,3.12,15.19,4.626,9.489043365903646,-11.19,14.25,54.614,12.613149646301672,36.63,70.06,0.77,0.0,-0.05,-0.64,0.05,0.08,0.93,3.12,10.44,36.63,1.0,0.816496580927726,0.0,2.0,1.0,3.7416573867739413,-4.0,5.0,-2.0,0.816496580927726,-3.0,-1.0,2.3333333333333335,25.525586292102197,-31.0,31.0,0.6666666666666666,6.599663291074443,-8.0,8.0,1.0,2.449489742783178,-2.0,4.0,2.0,2.160246899469287,-1.0,4.0,0.6666666666666666,1.247219128924647,-1.0,2.0,-2.0,2.943920288775949,-5.0,2.0,2.3333333333333335,3.8586123009300755,-3.0,6.0,2.3333333333333335,0.4714045207910317,2.0,3.0,-18.666666666666668,6.128258770283411,-26.0,-11.0,-4.333333333333333,2.6246692913372702,-8.0,-2.0,2.0,2.8284271247461903,-2.0,4.0,2.6666666666666665,1.247219128924647,1.0,4.0,-0.3333333333333333,1.247219128924647,-2.0,1.0
15330,15430,15380.0,5,3,0.766,0.00489897948556636,0.76,0.77,0.004,0.004898979485566357,0.0,0.01,-0.048,0.004,-0.05,-0.04,-0.642,0.007483314773547889,-0.65,-0.63,0.06,0.0282842712474619,0.01,0.09,0.074,0.027999999999999997,0.04,0.12,0.89,0.03898717737923589,0.82,0.93,3.086,5.536376432288542,-4.62,10.31,9.714,2.9391740336359806,6.31,14.25,38.902,12.106430357458798,26.69,59.94,0.77,0.01,-0.04,-0.63,0.01,0.08,0.88,-1.25,6.69,26.69,2.0,1.632993161855452,0.0,4.0,1.6666666666666667,4.0276819911981905,-4.0,5.0,0.6666666666666666,3.858612300930075,-3.0,6.0,-30.666666666666668,30.619528989773105,-68.0,7.0,-6.333333333333333,6.236095644623235,-13.0,2.0,0.0,3.7416573867739413,-5.0,4.0,1.0,2.160246899469287,-1.0,4.0,-0.6666666666666666,1.247219128924647,-2.0,1.0,-1.0,2.943920288775949,-5.0,2.0,-2.0,4.546060565661952,-7.0,4.0,1.3333333333333333,1.699673171197595,-1.0,3.0,-9.333333333333334,14.337208778404378,-26.0,9.0,-0.3333333333333333,7.039570693980959,-8.0,9.0,2.3333333333333335,3.091206165165235,-2.0,5.0,2.0,1.4142135623730951,1.0,4.0,0.6666666666666666,0.4714045207910317,0.0,1.0
15380,15480,15430.0,5,2,0.778,0.007483314773547889,0.77,0.79,0.01,0.0,0.01,0.01,-0.042,0.004,-0.05,-0.04,-0.626,0.01019803902718558,-0.64,-0.61,0.036000000000000004,0.028000000000000004,0.01,0.07,0.082,0.022271057451320082,0.05,0.12,0.8699999999999999,0.04,0.81,0.92,0.7000000000000001,4.353541087436755,-4.62,8.56,10.225999999999999,3.7085285491687934,6.31,16.31,39.614,11.924409587061321,26.69,58.94,0.79,0.01,-0.04,-0.61,0.02,0.05,0.9,8.56,9.69,58.94,2.5,1.5,1.0,4.0,2.0,2.0,0.0,4.0,6.5,0.5,6.0,7.0,-64.5,3.5,-68.0,-61.0,-16.5,3.5,-20.0,-13.0,-4.0,1.0,-5.0,-3.0,-0.5,0.5,-1.0,0.0,-3.0,1.0,-4.0,-2.0,2.0,2.0,0.0,4.0,-2.0,5.0,-7.0,3.0,-4.0,3.0,-7.0,-1.0,-1.0,10.0,-11.0,9.0,4.0,5.0,-1.0,9.0,3.0,2.0,1.0,5.0,0.5,0.5,0.0,1.0,-2.5,3.5,-6.0,1.0
15430,15530,15480.0,5,2,0.788,0.007483314773547889,0.78,0.8,0.01,0.0,0.01,0.01,-0.04,0.0,-0.04,-0.04,-0.614,0.01019803902718558,-0.63,-0.6,0.044,0.034985711369071804,0.01,0.1,0.068,0.0116619037896906,0.05,0.08,0.874,0.0417612260356422,0.81,0.92,3.05,3.068693533085375,-0.19,8.56,10.338,3.653395133297246,5.75,16.31,51.638,8.080934104421345,38.75,58.94,0.8,0.01,-0.04,-0.6,0.1,0.07,0.9,3.94,5.75,56.06,-2.0,3.0,-5.0,1.0,-3.0,3.0,-6.0,0.0,6.5,0.5,6.0,7.0,-48.0,13.0,-61.0,-35.0,-10.5,9.5,-20.0,-1.0,-0.5,2.5,-3.0,2.0,-1.0,0.0,-1.0,-1.0,-2.5,1.5,-4.0,-1.0,2.0,2.0,0.0,4.0,0.0,3.0,-3.0,3.0,-4.5,2.5,-7.0,-2.0,14.0,25.0,-11.0,39.0,4.5,5.5,-1.0,10.0,0.5,0.5,0.0,1.0,0.0,0.0,0.0,0.0,-2.5,3.5,-6.0,1.0
15480,15580,15530.0,5,3,0.8019999999999999,0.007483314773547889,0.79,0.81,0.014000000000000002,0.004898979485566357,0.01,0.02,-0.038,0.004,-0.04,-0.03,-0.594,0.01019803902718558,-0.61,-0.58,0.032,0.04069397989875161,-0.02,0.1,0.05600000000000001,0.01019803902718557,0.04,0.07,0.8960000000000001,0.013564659966250548,0.88,0.92,2.252,3.14265111012979,-3.12,6.44,9.736,2.6787056575891275,5.75,13.06,49.05,7.048466499884923,41.5,58.81,0.81,0.02,-0.03,-0.58,-0.02,0.04,0.88,-3.12,10.06,42.94,-2.0,2.943920288775949,-5.0,2.0,-5.0,0.816496580927726,-6.0,-4.0,6.0,1.632993161855452,4.0,8.0,-2.6666666666666665,27.86076492528915,-35.0,33.0,-0.6666666666666666,3.6817870057290873,-5.0,4.0,0.0,1.632993161855452,-2.0,2.0,-1.0,0.0,-1.0,-1.0,-1.3333333333333333,1.247219128924647,-3.0,0.0,0.0,1.632993161855452,-2.0,2.0,-0.6666666666666666,1.699673171197595,-3.0,1.0,0.0,1.632993161855452,-2.0,2.0,14.0,17.682382946499793,1.0,39.0,-1.3333333333333333,9.392668535736913,-13.0,10.0,-1.0,0.816496580927726,-2.0,0.0,0.0,1.632993161855452,-2.0,2.0,2.0,2.943920288775949,-1.0,6.0
15530,15630,15580.0,5,3,0.812,0.007483314773547842,0.8,0.82,0.018,0.004,0.01,0.02,-0.033999999999999996,0.004898979485566357,-0.04,-0.03,-0.578,0.011661903789690578,-0.59,-0.56,0.02,0.024494897427831782,-0.02,0.05,0.05600000000000001,0.01019803902718557,0.04,0.07,0.884,0.008000000000000007,0.87,0.89,2.5740000000000003,3.252860894658731,-3.12,6.44,9.286,3.1395643009819056,5.06,13.06,48.739999999999995,7.265083619615126,41.5,61.38,0.82,0.02,-0.03,-0.56,0.04,0.06,0.87,4.87,6.25,61.38,-1.0,2.160246899469287,-3.0,2.0,-3.3333333333333335,1.699673171197595,-5.0,-1.0,3.6666666666666665,3.681787005729087,-1.0,8.0,15.666666666666666,16.21384867602041,-6.0,33.0,2.3333333333333335,5.436502143433364,-5.0,8.0,-1.0,0.816496580927726,-2.0,0.0,-1.0,0.0,-1.0,-1.0,-0.6666666666666666,1.699673171197595,-3.0,1.0,1.0,2.160246899469287,-2.0,3.0,2.6666666666666665,3.091206165165235,0.0,7.0,-2.0,4.320493798938574,-8.0,2.0,21.333333333333332,28.051539866625664,1.0,61.0,-2.3333333333333335,8.219218670625303,-13.0,7.0,0.0,2.160246899469287,-2.0,3.0,1.6666666666666667,2.8674417556808756,-2.0,5.0,4.0,3.559026084010437,-1.0,7.0
15580,15680,15630.0,5,2,0.8299999999999998,0.008944271909999166,0.82,0.84,0.02,0.0,0.02,0.02,-0.03,0.0,-0.03,-0.03,-0.552,0.011661903789690578,-0.57,-0.54,0.027999999999999997,0.02315167380558045,-0.01,0.06,0.05800000000000001,0.016,0.04,0.08,0.8859999999999999,0.014966629547095779,0.87,0.91,5.898,2.892261398974857,2.62,9.69,9.488,3.7790072770504164,5.06,15.81,62.126,5.618357767177168,51.94,67.31,0.84,0.02,-0.03,-0.54,-0.01,0.08,0.91,9.69,9.69,62.75,-1.0,1.0,-2.0,0.0,-3.5,2.5,-6.0,-1.0,-2.0,1.0,-3.0,-1.0,1.5,18.5,-17.0,20.0,3.0,5.0,-2.0,8.0,0.5,1.5,-1.0,2.0,0.5,1.5,-1.0,2.0,0.5,0.5,0.0,1.0,1.5,1.5,0.0,3.0,2.0,5.0,-3.0,7.0,-1.5,6.5,-8.0,5.0,8.5,52.5,-44.0,61.0,-1.0,8.0,-9.0,7.0,1.0,2.0,-1.0,3.0,1.0,4.0,-3.0,5.0,2.5,4.5,-2.0,7.0
15630,15730,15680.0,5,2,0.842,0.007483314773547889,0.83,0.85,0.02,0.0,0.02,0.02,-0.03,0.0,-0.03,-0.03,-0.536,0.01019803902718558,-0.55,-0.52,0.028000000000000004,0.025612496949731396,-0.01,0.06,0.062,0.020396078054371138,0.04,0.09,0.8880000000000001,0.016000000000000014,0.87,0.91,5.773999999999999,2.92294782710879,2.87,9.69,9.064,4.4062392127527525,2.5,15.81,60.176,7.068333891377798,50.94,67.31,0.85,0.02,-0.03,-0.52,0.05,0.06,0.87,2.87,6.69,50.94,1.0,1.0,0.0,2.0,-4.5,1.5,-6.0,-3.0,0.5,3.5,-3.0,4.0,-11.0,6.0,-17.0,-5.0,0.5,2.5,-2.0,3.0,-1.5,3.5,-5.0,2.0,-2.0,4.0,-6.0,2.0,-2.0,2.0,-4.0,0.0,0.0,0.0,0.0,0.0,-1.5,1.5,-3.0,0.0,-2.5,7.5,-10.0,5.0,-25.0,19.0,-44.0,-6.0,-2.5,6.5,-9.0,4.0,-2.0,1.0,-3.0,-1.0,-3.5,0.5,-4.0,-3.0,-1.0,1.0,-2.0,0.0
15680,15780,15730.0,5,3,0.858,0.007483314773547889,0.85,0.87,0.024,0.004898979485566356,0.02,0.03,-0.03,0.0,-0.03,-0.03,-0.51,0.014142135623730963,-0.53,-0.49,0.018,0.02315167380558045,-0.01,0.05,0.068,0.013266499161421598,0.05,0.09,0.8779999999999999,0.014696938456699083,0.86,0.9,4.098000000000001,2.1485101814978678,1.12,7.56,7.2620000000000005,3.053197668019547,2.5,12.06,58.501999999999995,8.304197492834572,50.94,72.5,0.87,0.03,-0.03,-0.49,-0.0,0.07,0.89,7.56,8.0,72.5,0.0,1.4142135623730951,-1.0,2.0,0.0,2.160246899469287,-3.0,2.0,1.6666666666666667,2.0548046676563256,-1.0,4.0,14.333333333333334,13.67073110293992,-5.0,24.0,2.3333333333333335,0.9428090415820634,1.0,3.0,0.3333333333333333,4.109609335312651,-5.0,5.0,-2.6666666666666665,2.8674417556808756,-6.0,1.0,-1.3333333333333333,1.8856180831641267,-4.0,0.0,0.3333333333333333,1.247219128924647,-1.0,2.0,-0.3333333333333333,0.4714045207910317,-1.0,0.0,-3.0,5.715476066494082,-10.0,4.0,-5.666666666666667,11.841546445554407,-20.0,9.0,-1.0,6.377042156569663,-10.0,4.0,-0.3333333333333333,2.0548046676563256,-3.0,2.0,-2.3333333333333335,1.247219128924647,-4.0,-1.0,1.0,2.160246899469287,-1.0,4.0
15730,15830,15780.0,5,3,0.8699999999999999,0.008944271909999166,0.86,0.88,0.027999999999999997,0.003999999999999999,0.02,0.03,-0.03,0.0,-0.03,-0.03,-0.49000000000000005,0.014142135623730963,-0.51,-0.47,0.016,0.01854723699099141,-0.01,0.04,0.068,0.009797958971132713,0.05,0.08,0.8779999999999999,0.011661903789690611,0.86,0.89,3.286,2.737996347696614,-0.13,7.56,8.236,1.965030279664922,6.62,12.06,68.774,9.473152801470057,52.88,78.87,0.88,0.03,-0.03,-0.47,0.03,0.07,0.89,-0.13,7.44,76.06,-1.0,0.0,-1.0,-1.0,3.3333333333333335,2.6246692913372702,1.0,7.0,0.6666666666666666,1.247219128924647,-1.0,2.0,5.0,26.870057685088806,-33.0,24.0,-1.0,4.320493798938574,-7.0,3.0,2.0,2.160246899469287,0.0,5.0,0.6666666666666666,2.8674417556808756,-3.0,4.0,0.3333333333333333,0.4714045207910317,0.0,1.0,0.6666666666666666,1.247219128924647,-1.0,2.0,-1.0,0.816496580927726,-2.0,0.0,-1.6666666666666667,4.189935029992178,-6.0,4.0,-10.666666666666666,13.91242450313947,-21.0,9.0,-3.3333333333333335,5.312459150169743,-10.0,3.0,2.6666666666666665,2.494438257849294,0.0,6.0,2.0,4.96655480858378,-2.0,9.0,3.6666666666666665,3.681787005729087,-1.0,8.0
15780,15880,15830.0,4,2,0.885,0.0050000000000000044,0.88,0.89,0.03,0.0,0.03,0.03,-0.03,0.0,-0.03,-0.03,-0.46499999999999997,0.011180339887498935,-0.48,-0.45,0.017499999999999998,0.016393596310755,-0.01,0.03,0.0625,0.01299038105676658,0.05,0.08,0.885,0.0050000000000000044,0.88,0.89,1.9825,1.279304009999187,-0.13,3.06,7.640000000000001,0.675388776927778,6.62,8.25,69.405,8.650648819597292,57.13,78.87,0.89,0.03,-0.03,-0.45,-0.01,0.05,0.88,2.06,8.25,57.13,-0.5,0.5,-1.0,0.0,5.0,2.0,3.0,7.0,2.5,1.5,1.0,4.0,-13.0,20.0,-33.0,7.0,-2.5,4.5,-7.0,2.0,2.0,2.0,0.0,4.0,3.0,1.0,2.0,4.0,5.0,4.0,1.0,9.0,1.0,0.0,1.0,1.0,0.0,2.0,-2.0,2.0,0.0,6.0,-6.0,6.0,-22.5,1.5,-24.0,-21.0,-6.5,3.5,-10.0,-3.0,3.0,3.0,0.0,6.0,4.0,5.0,-1.0,9.0,2.0,6.0,-4.0,8.0
15830,15930,15880.0,5,2,0.8960000000000001,0.00489897948556636,0.89,0.9,0.03,0.0,0.03,0.03,-0.03,0.0,-0.03,-0.03,-0.442,0.011661903789690611,-0.46,-0.43,0.018,0.017204650534085254,-0.01,0.04,0.06000000000000001,0.012649110640673518,0.05,0.08,0.892,0.011661903789690611,0.88,0.91,0.674,1.671856453168154,-1.25,3.06,5.024,2.637670184082915,2.62,8.25,53.763999999999996,6.777700495005663,47.44,65.56,0.9,0.03,-0.03,-0.43,0.04,0.05,0.88,-1.25,2.62,49.63,0.5,0.5,0.0,1.0,0.5,2.5,-2.0,3.0,3.5,0.5,3.0,4.0,4.0,3.0,1.0,7.0,4.0,2.0,2.0,6.0,1.0,3.0,-2.0,4.0,-0.5,2.5,-3.0,2.0,4.0,5.0,-1.0,9.0,2.5,1.5,1.0,4.0,-0.5,2.5,-3.0,2.0,1.0,5.0,-4.0,6.0,-33.5,9.5,-43.0,-24.0,-8.5,1.5,-10.0,-7.0,-2.0,2.0,-4.0,0.0,-1.5,0.5,-2.0,-1.0,-2.0,2.0,-4.0,0.0
15880,15980,15930.0,5,3,0.9040000000000001,0.004898979485566361,0.9,0.91,0.03,0.0,0.03,0.03,-0.026000000000000002,0.004898979485566356,-0.03,-0.02,-0.426,0.01019803902718558,-0.44,-0.41,0.016,0.01624807680927192,-0.01,0.04,0.054000000000000006,0.01854723699099141,0.03,0.08,0.884,0.018547236990991423,0.86,0.91,1.136,3.178292623406473,-1.25,7.37,4.198,1.6288204320918866,2.62,6.25,51.8,4.079799014657463,47.44,58.56,0.91,0.03,-0.02,-0.41,-0.01,0.04,0.87,7.37,6.12,58.56,1.3333333333333333,0.4714045207910317,1.0,2.0,-0.6666666666666666,3.39934634239519,-4.0,4.0,-0.6666666666666666,2.6246692913372702,-3.0,3.0,3.3333333333333335,14.383632673594278,-13.0,22.0,5.666666666666667,2.8674417556808756,2.0,9.0,-1.0,0.816496580927726,-2.0,0.0,-2.3333333333333335,2.494438257849294,-5.0,1.0,0.3333333333333333,1.8856180831641267,-1.0,3.0,3.6666666666666665,2.0548046676563256,1.0,6.0,-0.6666666666666666,2.6246692913372702,-3.0,3.0,2.0,4.898979485566356,-4.0,8.0,-51.333333333333336,24.00462918318511,-84.0,-27.0,-14.666666666666666,9.46337971105226,-28.0,-7.0,-2.3333333333333335,1.247219128924647,-4.0,-1.0,-0.3333333333333333,3.0912061651652345,-3.0,4.0,-0.3333333333333333,4.4969125210773475,-6.0,5.0
15930,16030,15980.0,5,3,0.916,0.00489897948556636,0.91,0.92,0.03,0.0,0.03,0.03,-0.02,0.0,-0.02,-0.02,-0.40199999999999997,0.011661903789690587,-0.42,-0.39,0.018,0.0331058907144937,-0.01,0.08,0.055999999999999994,0.020591260281974,0.03,0.09,0.8880000000000001,0.02135415650406264,0.86,0.92,2.21,4.348484793580403,-4.56,7.37,3.072,2.6585740538867824,-0.13,6.25,45.948,15.670519327705767,17.06,58.56,0.92,0.03,-0.02,-0.39,0.08,0.06,0.89,-4.56,0.81,17.06,0.0,2.160246899469287,-3.0,2.0,1.0,3.559026084010437,-4.0,4.0,-4.0,2.160246899469287,-7.0,-2.0,22.0,28.577380332470412,-13.0,57.0,6.333333333333333,3.0912061651652345,2.0,9.0,0.0,0.816496580927726,-1.0,1.0,-2.0,2.449489742783178,-5.0,1.0,-0.6666666666666666,2.8674417556808756,-4.0,3.0,2.0,2.943920288775949,-1.0,6.0,0.3333333333333333,2.0548046676563256,-2.0,3.0,4.666666666666667,2.494438257849294,2.0,8.0,-33.333333333333336,39.041288685470185,-84.0,11.0,-12.333333333333334,11.67142760000773,-28.0,0.0,-0.3333333333333333,1.699673171197595,-2.0,2.0,1.0,2.943920288775949,-3.0,4.0,-2.3333333333333335,5.185449728701348,-6.0,5.0
15980,16080,16030.0,5,2,0.9200000000000002,1.1102230246251565e-16,0.92,0.92,0.03,0.0,0.03,0.03,-0.02,0.0,-0.02,-0.02,-0.392,0.0040000000000000036,-0.4,-0.39,0.022,0.03429285639896449,-0.01,0.08,0.072,0.024819347291981715,0.04,0.11,0.89,0.020000000000000018,0.86,0.92,-1.214,5.016136361782841,-8.13,6.37,1.298,1.5618757953179248,-0.31,3.81,17.336000000000002,29.799836643847563,-21.5,58.06,0.92,0.03,-0.02,-0.39,-0.01,0.11,0.88,-1.56,3.81,-21.5,-2.0,1.0,-3.0,-1.0,1.0,2.0,-1.0,3.0,-4.5,2.5,-7.0,-2.0,-1.0,58.0,-59.0,57.0,-6.5,14.5,-21.0,8.0,1.0,0.0,1.0,1.0,0.0,2.0,-2.0,2.0,-1.0,3.0,-4.0,2.0,0.0,1.0,-1.0,1.0,1.5,1.5,0.0,3.0,-1.5,5.5,-7.0,4.0,27.0,16.0,11.0,43.0,2.5,2.5,0.0,5.0,1.5,0.5,1.0,2.0,-0.5,2.5,-3.0,2.0,-4.0,2.0,-6.0,-2.0
16030,16130,16080.0,5,2,0.9200000000000002,1.1102230246251565e-16,0.92,0.92,0.027999999999999997,0.003999999999999999,0.02,0.03,-0.026000000000000002,0.004898979485566356,-0.03,-0.02,-0.396,0.00489897948556636,-0.4,-0.39,0.012,0.050358713248056686,-0.06,0.09,0.05,0.0363318042491699,0.01,0.11,0.882,0.02039607805437116,0.86,0.92,-4.426,3.116463380179527,-8.13,-0.25,-8.8,9.698321504260415,-21.75,3.81,-8.3,8.066962253537573,-21.5,1.44,0.92,0.02,-0.03,-0.4,0.09,0.02,0.92,-4.75,-8.5,-1.44,0.5,1.5,-1.0,2.0,3.0,4.0,-1.0,7.0,2.0,4.0,-2.0,6.0,-13.0,46.0,-59.0,33.0,-4.5,16.5,-21.0,12.0,-1.0,2.0,-3.0,1.0,2.0,0.0,2.0,2.0,1.5,0.5,1.0,2.0,0.0,1.0,-1.0,1.0,0.0,3.0,-3.0,3.0,-6.5,0.5,-7.0,-6.0,6.0,37.0,-31.0,43.0,-1.0,6.0,-7.0,5.0,-0.5,1.5,-2.0,1.0,-4.0,1.0,-5.0,-3.0,-3.0,1.0,-4.0,-2.0
16080,16180,16130.0,5,3,0.9200000000000002,1.1102230246251565e-16,0.92,0.92,0.024,0.004898979485566356,0.02,0.03,-0.03,0.0,-0.03,-0.03,-0.4,0.0,-0.4,-0.4,0.028000000000000004,0.053441556863549546,-0.06,0.09,0.028000000000000004,0.02227105745132009,0.01,0.07,0.8939999999999999,0.018547236990991423,0.87,0.92,-4.2,2.3890249056885113,-7.44,-0.25,-10.1,8.357418261640374,-21.75,0.94,-4.311999999999999,4.913985754965108,-11.31,1.44,0.92,0.02,-0.03,-0.4,0.04,0.03,0.89,-3.25,0.94,-1.31,-0.6666666666666666,2.0548046676563256,-3.0,2.0,-1.6666666666666667,6.182412330330469,-7.0,7.0,1.3333333333333333,3.6817870057290873,-3.0,6.0,13.666666666666666,23.22833518691246,-19.0,33.0,1.6666666666666667,7.586537784494029,-6.0,12.0,-0.6666666666666666,1.699673171197595,-3.0,1.0,2.6666666666666665,0.9428090415820634,2.0,4.0,2.0,2.160246899469287,0.0,5.0,-0.6666666666666666,1.247219128924647,-2.0,1.0,-2.0,5.354126134736337,-8.0,5.0,-4.333333333333333,6.236095644623235,-11.0,4.0,-3.3333333333333335,21.044925490219462,-31.0,20.0,-2.0,5.0990195135927845,-7.0,5.0,-0.6666666666666666,0.9428090415820634,-2.0,0.0,-3.0,1.4142135623730951,-5.0,-2.0,-2.3333333333333335,1.699673171197595,-4.0,0.0
16130,16230,16180.0,5,3,0.9200000000000002,1.1102230246251565e-16,0.92,0.92,0.02,0.0,0.02,0.02,-0.03,0.0,-0.03,-0.03,-0.394,0.00489897948556636,-0.4,-0.39,0.036,0.01854723699099141,0.02,0.07,0.046,0.02727636339397171,0.01,0.09,0.8880000000000001,0.013266499161421611,0.87,0.91,1.1480000000000001,5.234624723893776,-5.31,7.81,0.588,2.464811554662952,-3.94,3.56,3.0000000000000004,8.489096536145647,-8.94,12.88,0.92,0.02,-0.03,-0.39,0.02,0.09,0.89,-0.13,0.88,-0.19,-1.0,1.632993161855452,-3.0,1.0,-3.3333333333333335,3.8586123009300755,-7.0,2.0,-1.6666666666666667,1.8856180831641267,-3.0,1.0,5.666666666666667,18.92675942210452,-19.0,27.0,-1.0,4.08248290463863,-6.0,4.0,0.3333333333333333,0.4714045207910317,0.0,1.0,1.3333333333333333,2.494438257849294,-2.0,4.0,1.6666666666666667,2.357022603955158,0.0,5.0,1.0,2.449489742783178,-2.0,4.0,-1.0,5.354126134736337,-8.0,5.0,-2.0,6.48074069840786,-11.0,4.0,2.3333333333333335,13.912424503139471,-14.0,20.0,-0.6666666666666666,4.027681991198191,-4.0,5.0,-0.6666666666666666,0.9428090415820634,-2.0,0.0,-1.0,1.4142135623730951,-2.0,1.0,-0.6666666666666666,1.699673171197595,-3.0,1.0
16180,16280,16230.0,6,2,0.92,0.0,0.92,0.92,0.02,0.0,0.02,0.02,-0.03,0.0,-0.03,-0.03,-0.39333333333333337,0.004714045207910321,-0.4,-0.39,0.02666666666666667,0.007453559924999299,0.02,0.04,0.06,0.01914854215512676,0.04,0.09,0.88,0.005773502691896263,0.87,0.89,0.6233333333333333,5.13986273054922,-6.5,7.81,0.6583333333333333,1.6576430724240836,-1.81,3.56,1.0100000000000002,9.137211463752678,-10.69,12.88,0.92,0.02,-0.03,-0.4,0.04,0.04,0.88,-6.5,-1.81,-0.19,0.5,0.5,0.0,1.0,-1.5,3.5,-5.0,2.0,-1.0,2.0,-3.0,1.0,-2.0,11.0,-13.0,9.0,4.0,0.0,4.0,4.0,0.5,0.5,0.0,1.0,-2.5,0.5,-3.0,-2.0,0.5,0.5,0.0,1.0,0.0,4.0,-4.0,4.0,-0.5,0.5,-1.0,0.0,3.0,2.0,1.0,5.0,-16.0,2.0,-18.0,-14.0,-5.0,2.0,-7.0,-3.0,-4.0,2.0,-6.0,-2.0,-2.0,3.0,-5.0,1.0,-1.0,2.0,-3.0,1.0
16230,16330,16280.0,5,2,0.9200000000000002,1.1102230246251565e-16,0.92,0.92,0.02,0.0,0.02,0.02,-0.03,0.0,-0.03,-0.03,-0.398,0.0040000000000000036,-0.4,-0.39,0.034,0.008,0.02,0.04,0.048,0.017204650534085254,0.03,0.08,0.8800000000000001,1.1102230246251565e-16,0.88,0.88,-2.9859999999999998,2.1316153499165837,-6.5,-0.37,0.314,1.370380968927984,-1.81,2.06,-3.2380000000000004,5.321091617328159,-10.69,3.25,0.92,0.02,-0.03,-0.4,0.04,0.04,0.88,-1.25,1.5,-0.25,1.5,1.5,0.0,3.0,1.0,6.0,-5.0,7.0,-1.5,2.5,-4.0,1.0,4.0,17.0,-13.0,21.0,7.0,3.0,4.0,10.0,2.0,1.0,1.0,3.0,-1.0,2.0,-3.0,1.0,-1.5,2.5,-4.0,1.0,-4.0,0.0,-4.0,-4.0,2.0,3.0,-1.0,5.0,2.5,2.5,0.0,5.0,-19.0,1.0,-20.0,-18.0,-6.5,0.5,-7.0,-6.0,-2.5,3.5,-6.0,1.0,-2.5,2.5,-5.0,0.0,-3.5,0.5,-4.0,-3.0
16280,16380,16330.0,4,3,0.92,0.0,0.92,0.92,0.02,0.0,0.02,0.02,-0.03,0.0,-0.03,-0.03,-0.4,0.0,-0.4,-0.4,0.0425,0.004330127018922194,0.04,0.05,0.05,0.01870828693386971,0.03,0.08,0.8775,0.004330127018922197,0.87,0.88,-3.0775,1.781605666246041,-5.94,-1.25,4.390000000000001,3.019892382188478,1.5,9.13,-2.5,4.2463219378657575,-7.5,3.25,0.92,0.02,-0.03,-0.4,0.05,0.05,0.87,-5.94,9.13,-7.5,-0.3333333333333333,5.436502143433364,-8.0,4.0,3.3333333333333335,2.8674417556808756,0.0,7.0,-1.3333333333333333,4.496912521077347,-5.0,5.0,12.666666666666666,8.498365855987974,1.0,21.0,5.333333333333333,3.6817870057290873,1.0,10.0,2.0,0.816496580927726,1.0,3.0,-0.3333333333333333,0.9428090415820634,-1.0,1.0,-2.3333333333333335,2.3570226039551585,-4.0,1.0,-1.3333333333333333,1.8856180831641267,-4.0,0.0,3.3333333333333335,2.3570226039551585,0.0,5.0,0.0,2.449489742783178,-3.0,3.0,13.0,28.717010057919794,-20.0,50.0,11.0,18.05547008526779,-6.0,36.0,-1.3333333333333333,2.0548046676563256,-4.0,1.0,-1.0,4.546060565661952,-7.0,4.0,-2.6666666666666665,1.8856180831641267,-4.0,0.0
16330,16430,16380.0,5,3,0.9200000000000002,1.1102230246251565e-16,0.92,0.92,0.02,0.0,0.02,0.02,-0.024,0.004898979485566356,-0.03,-0.02,-0.396,0.00489897948556636,-0.4,-0.39,0.012,0.03187475490101846,-0.04,0.05,0.044,0.027276363393971714,-0.0,0.08,0.882,0.017204650534085267,0.86,0.91,-2.4880000000000004,5.666030003450388,-10.56,6.37,6.659999999999999,1.5995749435396895,4.87,9.13,5.087999999999999,11.728596505976322,-7.5,22.0,0.92,0.02,-0.02,-0.39,-0.04,0.06,0.91,6.37,7.87,22.0,-1.0,5.0990195135927845,-8.0,4.0,2.6666666666666665,2.0548046676563256,0.0,5.0,1.0,4.320493798938574,-5.0,5.0,-12.333333333333334,30.09245014211298,-54.0,16.0,-8.0,15.641824275533422,-30.0,5.0,-2.0,4.96655480858378,-9.0,2.0,-2.6666666666666665,2.3570226039551585,-6.0,-1.0,-2.0,2.160246899469287,-4.0,1.0,0.3333333333333333,0.4714045207910317,0.0,1.0,1.3333333333333333,2.6246692913372702,-1.0,5.0,0.0,2.449489742783178,-3.0,3.0,22.666666666666668,19.3275853524323,9.0,50.0,12.0,17.146428199482248,-3.0,36.0,-3.6666666666666665,2.0548046676563256,-6.0,-1.0,-1.6666666666666667,4.4969125210773475,-7.0,4.0,-2.0,1.632993161855452,-4.0,0.0
16380,16480,16430.0,5,2,0.9200000000000002,1.1102230246251565e-16,0.92,0.92,0.02,0.0,0.02,0.02,-0.02,0.0,-0.02,-0.02,-0.392,0.0040000000000000036,-0.4,-0.39,0.003999999999999999,0.024166091947189144,-0.04,0.03,0.033999999999999996,0.020591260281974,-0.0,0.06,0.8960000000000001,0.02059126028197402,0.86,0.92,-2.612,5.566720398942271,-10.56,6.37,3.71,3.7330041521541335,-2.69,7.87,10.475999999999999,7.882757385585326,0.75,22.0,0.92,0.02,-0.02,-0.39,0.02,0.03,0.9,-3.94,1.94,3.0,1.0,0.0,1.0,1.0,3.0,2.0,1.0,5.0,1.5,1.5,0.0,3.0,-45.0,9.0,-54.0,-36.0,-21.0,9.0,-30.0,-12.0,-6.0,3.0,-9.0,-3.0,-4.0,2.0,-6.0,-2.0,-1.5,1.5,-3.0,0.0,2.5,1.5,1.0,4.0,-3.0,2.0,-5.0,-1.0,-1.0,1.0,-2.0,0.0,-26.5,35.5,-62.0,9.0,-11.0,8.0,-19.0,-3.0,-3.5,2.5,-6.0,-1.0,-2.0,0.0,-2.0,-2.0,-2.5,0.5,-3.0,-2.0
16430,16530,16480.0,5,2,0.9200000000000002,1.1102230246251565e-16,0.92,0.92,0.02,0.0,0.02,0.02,-0.02,0.0,-0.02,-0.02,-0.386,0.00489897948556636,-0.39,-0.38,0.003999999999999999,0.028705400188814643,-0.04,0.03,0.05,0.014142135623730952,0.03,0.07,0.8859999999999999,0.021540659228538036,0.86,0.92,-1.0100000000000002,3.251510418251801,-4.62,3.94,0.414,1.8697978500362011,-2.69,2.5,15.412,9.657195037897909,3.0,30.31,0.92,0.02,-0.02,-0.38,-0.04,0.07,0.88,-1.87,2.5,30.31,1.0,0.0,1.0,1.0,1.0,0.0,1.0,1.0,-3.0,3.0,-6.0,0.0,-33.0,3.0,-36.0,-30.0,-12.0,0.0,-12.0,-12.0,-3.0,0.0,-3.0,-3.0,-3.0,1.0,-4.0,-2.0,-1.5,1.5,-3.0,0.0,1.0,3.0,-2.0,4.0,-2.0,3.0,-5.0,1.0,-1.0,1.0,-2.0,0.0,-22.5,39.5,-62.0,17.0,-5.5,13.5,-19.0,8.0,1.5,2.5,-1.0,4.0,0.5,2.5,-2.0,3.0,0.5,3.5,-3.0,4.0
16480,16580,16530.0,5,3,0.924,0.00489897948556636,0.92,0.93,0.02,0.0,0.02,0.02,-0.02,0.0,-0.02,-0.02,-0.376,0.01019803902718558,-0.39,-0.36,0.007999999999999998,0.03187475490101845,-0.04,0.04,0.038,0.024819347291981715,0.01,0.07,0.876,0.01019803902718558,0.86,0.89,1.8519999999999999,2.0334345330007553,-1.87,3.94,1.2120000000000002,1.2936058132213228,-0.56,2.87,36.45,19.97732014059944,10.56,62.5,0.93,0.02,-0.02,-0.36,0.03,0.01,0.88,3.19,0.37,62.5,-0.6666666666666666,2.3570226039551585,-4.0,1.0,-2.0,2.449489742783178,-5.0,1.0,-2.6666666666666665,2.494438257849294,-6.0,0.0,-21.333333333333332,7.84573486395988,-30.0,-11.0,-10.333333333333334,9.46337971105226,-21.0,2.0,-2.3333333333333335,0.9428090415820634,-3.0,-1.0,-2.6666666666666665,0.9428090415820634,-4.0,-2.0,-2.0,2.160246899469287,-4.0,1.0,-1.3333333333333333,1.699673171197595,-3.0,1.0,0.0,2.943920288775949,-4.0,3.0,0.6666666666666666,1.699673171197595,-1.0,3.0,8.0,6.48074069840786,2.0,17.0,5.333333333333333,3.7712361663282534,0.0,8.0,-0.3333333333333333,3.0912061651652345,-3.0,4.0,-0.3333333333333333,2.494438257849294,-3.0,3.0,0.0,2.943920288775949,-3.0,4.0
